# Transfer functions T_i(k) for adiabatic (AD) mode (normalized to initial curvature=1) at redshift z=1.05
# for k=2.11387e-07 to 1060.53 h/Mpc,
# number of wavenumbers equal to 159
# t_i   stands for theta_i(k,z) with above normalization 
# t_tot stands for (sum_i [rho_i+p_i] theta_i)/(sum_i [rho_i+p_i]))(k,z)
#
#    1:k (h/Mpc)              2:t_g                    3:t_b                    4:t_cdm                  5:t_ur                   6:t_ncdm[0]              7:t_tot              
       2.113871688530e-07       4.199352283030e-11       4.199332169457e-11       4.199332166161e-11       4.199353367342e-11       4.199288397274e-11       4.199332017788e-11 
       2.661206785963e-07       6.655523917210e-11       6.655492963619e-11       6.655492958447e-11       6.655525605422e-11       6.655423586903e-11       6.655492722634e-11 
       3.350260848888e-07       1.054829223841e-10       1.054824548299e-10       1.054824547491e-10       1.054829483891e-10       1.054813552222e-10       1.054824509954e-10 
       4.217728518804e-07       1.671791083120e-10       1.671784245262e-10       1.671784244013e-10       1.671791476713e-10       1.671766816175e-10       1.671784184113e-10 
       5.309805612372e-07       2.649608858690e-10       2.649599466526e-10       2.649599464627e-10       2.649609435494e-10       2.649571839510e-10       2.649599368662e-10 
       6.684649217102e-07       4.199343427610e-10       4.199332153579e-10       4.199332150764e-10       4.199344224683e-10       4.199288358374e-10       4.199331996101e-10 
       8.415474768340e-07       6.655501701569e-10       6.655492928761e-10       6.655492924794e-10       6.655502669462e-10       6.655423494401e-10       6.655492673197e-10 
       1.059445503818e-06       1.054823641306e-09       1.054824539145e-09       1.054824538641e-09       1.054823720323e-09       1.054813528575e-09       1.054824497137e-09 
       1.333762867167e-06       1.671777036845e-09       1.671784218054e-09       1.671784217570e-09       1.671776974684e-09       1.671766752406e-09       1.671784147693e-09 
       1.679107966784e-06       2.649573594296e-09       2.649599401430e-09       2.649599401448e-09       2.649573027076e-09       2.649571682695e-09       2.649599280434e-09 
       2.113871688530e-06       4.199254782670e-09       4.199331978442e-09       4.199331980452e-09       4.199252703290e-09       4.199287952422e-09       4.199331762826e-09 
       2.661206785963e-06       6.655278987183e-09       6.655492479989e-09       6.655492488149e-09       6.655272727690e-09       6.655422465526e-09       6.655492078368e-09 
       3.350260848888e-06       1.054767698387e-08       1.054824426409e-08       1.054824428951e-08       1.054765961988e-08       1.054813270122e-08       1.054824347713e-08 
       4.217728518804e-06       1.671636527648e-08       1.671783936877e-08       1.671783944044e-08       1.671631905964e-08       1.671766105281e-08       1.671783774367e-08 
       5.309805612372e-06       2.649220630627e-08       2.649598690172e-08       2.649598709410e-08       2.649208609636e-08       2.649570052036e-08       2.649598337700e-08 
       6.684649217102e-06       4.198368229085e-08       4.199330195758e-08       4.199330246042e-08       4.198337381810e-08       4.199283860454e-08       4.199329398732e-08 
       8.415474768340e-06       6.653052195295e-08       6.655488004589e-08       6.655488134002e-08       6.652973681613e-08       6.655412189571e-08       6.655486142615e-08 
       1.059445503818e-05       1.054208398973e-07       1.054823302101e-07       1.054823335099e-07       1.054188515858e-07       1.054810688781e-07       1.054822856612e-07 
       1.333762867167e-05       1.670231817151e-07       1.671781113143e-07       1.671781196807e-07       1.670181624010e-07       1.671759621681e-07       1.671780029416e-07 
       1.679107966784e-05       2.645692895181e-07       2.649591598324e-07       2.649591809697e-07       2.645566447667e-07       2.649553767145e-07       2.649588932361e-07 
       2.113871688530e-05       4.189509866054e-07       4.199312380899e-07       4.199312913731e-07       4.189191765433e-07       4.199242954020e-07       4.199305774619e-07 
       2.661206785963e-05       6.630812610227e-07       6.655443260083e-07       6.655444601301e-07       6.630013239429e-07       6.655309443158e-07       6.655426813794e-07 
       3.350260848888e-05       1.048626687138e-06       1.054812064109e-06       1.054812401380e-06       1.048426007526e-06       1.054784881954e-06       1.054807958336e-06 
       4.217728518804e-05       1.656229544639e-06       1.671752886679e-06       1.671753734170e-06       1.655726302324e-06       1.671694802172e-06       1.671742621178e-06 
       5.309805612372e-05       2.610593741403e-06       2.649520707681e-06       2.649522835821e-06       2.609333621037e-06       2.649390967836e-06       2.649495027600e-06 
       6.684649217102e-05       4.101634569872e-06       4.199134365783e-06       4.199139705842e-06       4.098486015571e-06       4.198834110618e-06       4.199070147062e-06 
       8.415474768340e-05       6.411228849567e-06       6.654996320273e-06       6.655009707026e-06       6.403387828029e-06       6.654282831564e-06       6.654835936777e-06 
       1.059445503818e-04       9.939242353969e-06       1.054699883215e-05       1.054703234417e-05       9.919816683110e-06       1.054527150887e-05       1.054659930032e-05 
       1.333762867167e-04       1.520614213738e-05       1.671471439673e-05       1.671479811240e-05       1.515841201305e-05       1.671047975743e-05       1.671372342972e-05 
       1.679107966784e-04       2.276959167615e-05       2.648815092625e-05       2.648835936707e-05       2.265385663469e-05       2.647768461211e-05       2.648571030416e-05 
       2.113871688530e-04       3.290804253067e-05       4.197367259776e-05       4.197418891770e-05       3.263334638487e-05       4.194767458523e-05       4.196772918337e-05 
       2.661206785963e-04       4.478554300643e-05       6.650578501405e-05       6.650705367483e-05       4.415600646346e-05       6.644103062378e-05       6.649156885914e-05 
       3.350260848888e-04       5.472739666813e-05       1.053598383876e-04       1.053629165779e-04       5.336711305488e-05       1.051983980539e-04       1.053267846220e-04 
       4.217728518804e-04       5.380160597459e-05       1.668736440190e-04       1.668809684178e-04       5.115139841394e-05       1.664714163488e-04       1.668001358949e-04 
       5.309805612372e-04       2.788706453087e-05       2.642066809445e-04       2.642235985055e-04       2.366629529416e-05       2.632069517111e-04       2.640540965105e-04 
       6.684649217102e-04      -2.939884082434e-05       4.180871198502e-04       4.181245099585e-04      -3.335379080711e-05       4.156139750642e-04       4.178014101299e-04 
       8.415474768340e-04      -8.150456331633e-05       6.610784003403e-04       6.611560486449e-04      -7.791101283014e-05       6.550086899714e-04       6.606122772919e-04 
       1.059445503818e-03      -4.984150901006e-05       1.044165478847e-03       1.044314263885e-03      -2.841193282323e-05       1.029454665135e-03       1.043489693146e-03 
       1.333762867167e-03      -3.539384338848e-06       1.646841008031e-03       1.647101774000e-03       2.632187887569e-05       1.611846115096e-03       1.645803852925e-03 
       1.679107966784e-03      -1.015953882922e-04       2.592339978149e-03       2.592761663034e-03      -9.680649647874e-05       2.511182390017e-03       2.590544649720e-03 
       2.113871688530e-03       2.932526801596e-05       4.070178365452e-03       4.070822022377e-03       1.402370058134e-05       3.887598190844e-03       4.067263377089e-03 
       2.661206785963e-03      -1.358389513463e-04       6.368924133325e-03       6.369906969885e-03      -1.129017101372e-04       5.970161746328e-03       6.363807013031e-03 
       3.350260848888e-03      -7.873884284867e-05       9.922904767234e-03       9.924470837797e-03      -8.782735689980e-05       9.070566314310e-03       9.914182765370e-03 
       4.217728518804e-03      -9.939756769917e-05       1.537651152399e-02       1.537897661315e-02      -8.464495645411e-05       1.358280404816e-02       1.536128949045e-02 
       5.309805612372e-03      -1.374247741845e-04       2.366747438338e-02       2.367130991281e-02      -1.315399286420e-04       1.997588788586e-02       2.364062187251e-02 
       6.684649217102e-03       5.428002407331e-05       3.612619199095e-02       3.613220777446e-02       7.982792114281e-06       2.875668973425e-02       3.607905169052e-02 
       8.415474768340e-03       5.664364569703e-05       5.457605234527e-02       5.458549021833e-02       1.384841622319e-05       4.034808726685e-02       5.449359944411e-02 
       1.059445503818e-02      -1.700589289599e-04       8.138906056837e-02       8.140391992727e-02      -1.537805448032e-04       5.491214188539e-02       8.124702546715e-02 
       1.333762867167e-02      -2.057094421126e-04       1.193964757080e-01       1.194200707193e-01      -1.348991046142e-04       7.209365866610e-02       1.191581644797e-01 
       1.679107966781e-02      -3.021907637100e-05       1.714730362066e-01       1.715108738904e-01      -1.544315322976e-04       9.068050901097e-02       1.710863719491e-01 
       2.113871670917e-02       1.226085591646e-04       2.395882430485e-01       2.396492545431e-01      -1.328731088812e-04       1.084686607193e-01       2.389870460507e-01 
       2.661193529410e-02      -6.071068003958e-05       3.235250664375e-01       3.236222118584e-01      -1.343259842679e-04       1.224357710948e-01       3.226360870744e-01 
       3.348442896176e-02       5.667531282640e-05       4.209315667281e-01       4.210783092512e-01      -9.064765833928e-05       1.300403771272e-01       4.196831994994e-01 
       4.157732672947e-02      -2.731170639840e-05       5.274090947918e-01       5.276035884707e-01      -2.601944220918e-05       1.315918045081e-01       5.257371767521e-01 
       4.838882049716e-02      -2.367849194200e-05       6.189624378502e-01       6.191763869941e-01      -2.255875695603e-05       1.312955743479e-01       6.169021440086e-01 
       5.333080081211e-02      -2.174520504861e-05       6.902224088476e-01       6.904379224222e-01      -2.071720306435e-05       1.312369632617e-01       6.878490581815e-01 
       5.740801476810e-02      -2.045700151178e-05       7.522301175887e-01       7.524417821924e-01      -1.949009805965e-05       1.312673844542e-01       7.495802828421e-01 
       6.104925253706e-02      -1.946114557705e-05       8.091132220774e-01       8.093204658245e-01      -1.854146043548e-05       1.312127535906e-01       8.062086981990e-01 
       6.444578911592e-02      -1.861319079170e-05       8.622220459852e-01       8.624268598074e-01      -1.773370097857e-05       1.309093854156e-01       8.590802185764e-01 
       6.769891516270e-02      -1.784150004732e-05       9.118856278238e-01       9.120916651334e-01      -1.699858231549e-05       1.302519123479e-01       9.085234362617e-01 
       7.086938720988e-02      -1.710697704821e-05       9.580258179677e-01       9.582378485661e-01      -1.629886238935e-05       1.291588703754e-01       9.544611807430e-01 
       7.399712481949e-02      -1.638808716301e-05       1.000436424588e+00       1.000659870106e+00      -1.561402564448e-05       1.276507279816e-01       9.966887929635e-01 
       7.711026791128e-02      -1.567436596513e-05       1.038946859338e+00       1.039187323243e+00      -1.493410474745e-05       1.257090033486e-01       1.035036520585e+00 
       8.022981465599e-02      -1.496295355214e-05       1.073536760651e+00       1.073799519084e+00      -1.425637563794e-05       1.233104537889e-01       1.069483730327e+00 
       8.337219929640e-02      -1.425652303646e-05       1.104421534038e+00       1.104711003220e+00      -1.358338478734e-05       1.205534649045e-01       1.100244521939e+00 
       8.655081991654e-02      -1.356173687720e-05       1.132111437178e+00       1.132430668576e+00      -1.292147889155e-05       1.175368590114e-01       1.127826125013e+00 
       8.977699164816e-02      -1.288789860331e-05       1.157439562468e+00       1.157789751268e+00      -1.227952222557e-05       1.143428494675e-01       1.153056705897e+00 
       9.306056683704e-02      -1.224551566953e-05       1.181549980819e+00       1.181930124993e+00      -1.166752472041e-05       1.111490043577e-01       1.177074107038e+00 
       9.641035269606e-02      -1.164495467963e-05       1.205838603691e+00       1.206245335217e+00      -1.109536399659e-05       1.080223502643e-01       1.201266347917e+00 
       9.983440071519e-02      -1.109497379778e-05       1.231840975272e+00       1.232268648785e+00      -1.057138475414e-05       1.050920169438e-01       1.227160770806e+00 
       1.033402119681e-01      -1.060140962442e-05       1.261067654093e+00       1.261508748399e+00      -1.010114828274e-05       1.024940553468e-01       1.256260205520e+00 
       1.069348855485e-01      -1.016610024004e-05       1.294796711386e+00       1.295242570410e+00      -9.686407348037e-06       1.002613092269e-01       1.289836257755e+00 
       1.106252274985e-01      -9.786159992726e-06       1.333844597816e+00       1.334286490539e+00      -9.324414265321e-06       9.839118021468e-02       1.328701706175e+00 
       1.144178316307e-01      -9.453838404247e-06       1.378350004300e+00       1.378780419292e+00      -9.007786595317e-06       9.684606090872e-02       1.372995514777e+00 
       1.183191399418e-01      -9.157064089195e-06       1.427616668613e+00       1.428030684711e+00      -8.725025092539e-06       9.550646332038e-02       1.422026221983e+00 
       1.223354879560e-01      -8.880731844784e-06       1.480067847089e+00       1.480464350240e+00      -8.461739521481e-06       9.427569140526e-02       1.474226873457e+00 
       1.264731388080e-01      -8.608698009302e-06       1.533361569996e+00       1.533744036600e+00      -8.202550128862e-06       9.298698631874e-02       1.527269059580e+00 
       1.307383088689e-01      -8.326240704916e-06       1.584697559193e+00       1.585074122400e+00      -7.933431505300e-06       9.145793078451e-02       1.578368080207e+00 
       1.351371870486e-01      -8.022615176271e-06       1.631310708762e+00       1.631693290295e+00      -7.644146437402e-06       8.958536781010e-02       1.624773818098e+00 
       1.396759494632e-01      -7.693243464283e-06       1.671093892609e+00       1.671496334706e+00      -7.330332693843e-06       8.730946204565e-02       1.664389827123e+00 
       1.443607708613e-01      -7.340951521949e-06       1.703232603220e+00       1.703667970503e+00      -6.994681877423e-06       8.463845950444e-02       1.696404568047e+00 
       1.491978340066e-01      -6.975773935859e-06       1.728680389854e+00       1.729157895782e+00      -6.646753193136e-06       8.168715087563e-02       1.721764578544e+00 
       1.541933380895e-01      -6.613105373961e-06       1.750282060814e+00       1.750804338615e+00      -6.301213055674e-06       7.859244426657e-02       1.743297107417e+00 
       1.593535071576e-01      -6.270285797614e-06       1.772386034480e+00       1.772947616363e+00      -5.974581079404e-06       7.563001786739e-02       1.765325623839e+00 
       1.646845995079e-01      -5.962302050237e-06       1.799897111086e+00       1.800484891276e+00      -5.681136036584e-06       7.295604685334e-02       1.792727470117e+00 
       1.701929189492e-01      -5.697577103791e-06       1.836900443732e+00       1.837496501578e+00      -5.428903364571e-06       7.070857131152e-02       1.829566258883e+00 
       1.758848288251e-01      -5.475193635661e-06       1.885201213417e+00       1.885787673188e+00      -5.217010204913e-06       6.886547199175e-02       1.877639168280e+00 
       1.817667696725e-01      -5.284646878036e-06       1.943295053899e+00       1.943859806915e+00      -5.035449121582e-06       6.738192847068e-02       1.935453141827e+00 
       1.878452813852e-01      -5.108699493927e-06       2.006308082510e+00       2.006849493645e+00      -4.867798607495e-06       6.598475254135e-02       1.998163564876e+00 
       1.941270307443e-01      -4.928778443408e-06       2.067233148743e+00       2.067761698307e+00      -4.696363654063e-06       6.449409897524e-02       2.058803686282e+00 
       2.006188451821e-01      -4.731383572730e-06       2.119327055263e+00       2.119862548184e+00      -4.508282112740e-06       6.268938595115e-02       2.110667048405e+00 
       2.073277536588e-01      -4.513089049920e-06       2.158936779584e+00       2.159501324162e+00      -4.300289417975e-06       6.051772661520e-02       2.150118471379e+00 
       2.142610355664e-01      -4.281904406639e-06       2.187546368065e+00       2.188155358062e+00      -4.080015629791e-06       5.811923134310e-02       2.178630340174e+00 
       2.214262786303e-01      -4.053905897747e-06       2.211815052940e+00       2.212469980401e+00      -3.862776717418e-06       5.566193683188e-02       2.202821477002e+00 
       2.288314468800e-01      -3.846059154638e-06       2.241042964895e+00       2.241729971970e+00      -3.664736256882e-06       5.342215493263e-02       2.231939146482e+00 
       2.364849599101e-01      -3.668273943430e-06       2.282769530059e+00       2.283465522579e+00      -3.495336152571e-06       5.151247694233e-02       2.273482197015e+00 
       2.443957848719e-01      -3.518596414301e-06       2.338539830698e+00       2.339224153203e+00      -3.352715496778e-06       4.996789907538e-02       2.328991078135e+00 
       2.525735429460e-01      -3.384443781925e-06       2.402408904205e+00       2.403074800102e+00      -3.224886942472e-06       4.856625301771e-02       2.392557884462e+00 
       2.610286324711e-01      -3.249702875146e-06       2.463760000258e+00       2.464418895458e+00      -3.096499020290e-06       4.710801479589e-02       2.453627201453e+00 
       2.697723714746e-01      -3.104002097504e-06       2.513545273787e+00       2.514220094807e+00      -2.957670046542e-06       4.543923203654e-02       2.503200159832e+00 
       2.788171631175e-01      -2.948527070651e-06       2.550367130848e+00       2.551077613636e+00      -2.809529017723e-06       4.360539252534e-02       2.539882816185e+00 
       2.881766885710e-01      -2.794367730662e-06       2.581953465477e+00       2.582702786636e+00      -2.662641400170e-06       4.172137591828e-02       2.571355512904e+00 
       2.978661331832e-01      -2.654128888624e-06       2.620008966623e+00       2.620781792952e+00      -2.529016211935e-06       4.001637192775e-02       2.609256642400e+00 
       3.079024535571e-01      -2.532631109892e-06       2.671354644856e+00       2.672129381774e+00      -2.413246628525e-06       3.851804335936e-02       2.660371987602e+00 
       3.183046955236e-01      -2.423794466782e-06       2.732196741023e+00       2.732963270521e+00      -2.309540394264e-06       3.720585418194e-02       2.720934078615e+00 
       3.290943761514e-01      -2.316416103217e-06       2.791150732884e+00       2.791918645306e+00      -2.207224277501e-06       3.587602990274e-02       2.779624379685e+00 
       3.402959472302e-01      -2.204028422239e-06       2.839551765142e+00       2.840340714811e+00      -2.100136097691e-06       3.443338369622e-02       2.827824334809e+00 
       3.519373635464e-01      -2.089939317634e-06       2.879887579269e+00       2.880707910327e+00      -1.991427083534e-06       3.292255738462e-02       2.868003063431e+00 
       3.640507874628e-01      -1.982598762247e-06       2.923232478958e+00       2.924075581710e+00      -1.889147756772e-06       3.148331218962e-02       2.911170645913e+00 
       3.766734728608e-01      -1.886094876880e-06       2.977104979922e+00       2.977954490765e+00      -1.797193225022e-06       3.019146310425e-02       2.964806220807e+00 
