# Matter power spectrum P(k) at redshift z=0.05
# for k=2.11387e-07 to 211.604 h/Mpc,
# number of wavenumbers equal to 152
#    1:k (h/Mpc)              2:P (Mpc/h)^3        
       2.113871688530e-07       1.144390834662e+00 
       2.661206785963e-07       1.427494260153e+00 
       3.350260848888e-07       1.780632805100e+00 
       4.217728518804e-07       2.221132002658e+00 
       5.309805612372e-07       2.770603436463e+00 
       6.684649217102e-07       3.456005038080e+00 
       8.415474768340e-07       4.310963683806e+00 
       1.059445503818e-06       5.377424978603e+00 
       1.333762867167e-06       6.707711166412e+00 
       1.679107966784e-06       8.367088127659e+00 
       2.113871688530e-06       1.043696739800e+01 
       2.661206785963e-06       1.301890029074e+01 
       3.350260848888e-06       1.623956005378e+01 
       4.217728518804e-06       2.025695644023e+01 
       5.309805612372e-06       2.526818748373e+01 
       6.684649217102e-06       3.151910858382e+01 
       8.415474768340e-06       3.931639286946e+01 
       1.059445503818e-05       4.904257372510e+01 
       1.333762867167e-05       6.117480587657e+01 
       1.679107966784e-05       7.630826229811e+01 
       2.113871688530e-05       9.518530853079e+01 
       2.661206785963e-05       1.187318733073e+02 
       3.350260848888e-05       1.481027753107e+02 
       4.217728518804e-05       1.847381813766e+02 
       5.309805612372e-05       2.304338704669e+02 
       6.684649217102e-05       2.874285625220e+02 
       8.415474768340e-05       3.585122273200e+02 
       1.059445503818e-04       4.471599650616e+02 
       1.333762867167e-04       5.576966245959e+02 
       1.679107966784e-04       6.954975396874e+02 
       2.113871688530e-04       8.672301325563e+02 
       2.661206785963e-04       1.081138835960e+03 
       3.350260848888e-04       1.347370646354e+03 
       4.217728518804e-04       1.678329440316e+03 
       5.309805612372e-04       2.089033614796e+03 
       6.684649217102e-04       2.597434162244e+03 
       8.415474768340e-04       3.224622587743e+03 
       1.059445503818e-03       3.994786152415e+03 
       1.333762867167e-03       4.934618799096e+03 
       1.679107966784e-03       6.071818008023e+03 
       2.113871688530e-03       7.432386313863e+03 
       2.661206785963e-03       9.036305882714e+03 
       3.350260848888e-03       1.089142559812e+04 
       4.217728518804e-03       1.298532145861e+04 
       5.309805612372e-03       1.527396938026e+04 
       6.684649217102e-03       1.766790226926e+04 
       8.415474768340e-03       2.001775738239e+04 
       1.059445503818e-02       2.210041016836e+04 
       1.333762867167e-02       2.361008254737e+04 
       1.679107966781e-02       2.417394260631e+04 
       2.113871670917e-02       2.342781144854e+04 
       2.661193529410e-02       2.120693616826e+04 
       3.348442896176e-02       1.785085619353e+04 
       4.157732672947e-02       1.450754807876e+04 
       4.838882049716e-02       1.259543894432e+04 
       5.333080081211e-02       1.165180014279e+04 
       5.740801476810e-02       1.106089155761e+04 
       6.104925253706e-02       1.061364785521e+04 
       6.444578911592e-02       1.022256994895e+04 
       6.769891516270e-02       9.843571224094e+03 
       7.086938720988e-02       9.453109831088e+03 
       7.399712481949e-02       9.039848405492e+03 
       7.711026791128e-02       8.600961638097e+03 
       8.022981465599e-02       8.140017117667e+03 
       8.337219929640e-02       7.665346397656e+03 
       8.655081991654e-02       7.188487658711e+03 
       8.977699164816e-02       6.722587738868e+03 
       9.306056683704e-02       6.280810124527e+03 
       9.641035269606e-02       5.874856586194e+03 
       9.983440071519e-02       5.513720157865e+03 
       1.033402119681e-01       5.202754667996e+03 
       1.069348855485e-01       4.943093924459e+03 
       1.106252274985e-01       4.731417123656e+03 
       1.144178316307e-01       4.560064124875e+03 
       1.183191399418e-01       4.417560395095e+03 
       1.223354879560e-01       4.289675819774e+03 
       1.264731388080e-01       4.161136748405e+03 
       1.307383088689e-01       4.017975896616e+03 
       1.351371870486e-01       3.850210032162e+03 
       1.396759494632e-01       3.654199311589e+03 
       1.443607708613e-01       3.433854275135e+03 
       1.491978340066e-01       3.200028484345e+03 
       1.541933380895e-01       2.967994976446e+03 
       1.593535071576e-01       2.753630231829e+03 
       1.646845995079e-01       2.569419789003e+03 
       1.701929189492e-01       2.421381333053e+03 
       1.758848288251e-01       2.307584694781e+03 
       1.817667696725e-01       2.218545276055e+03 
       1.878452813852e-01       2.139615384634e+03 
       1.941270307443e-01       2.055292218124e+03 
       2.006188451821e-01       1.954572859544e+03 
       2.073277536588e-01       1.835288598117e+03 
       2.142610355664e-01       1.704953484731e+03 
       2.214262786303e-01       1.577135231263e+03 
       2.288314468800e-01       1.465004068702e+03 
       2.364849599101e-01       1.375367174461e+03 
       2.443957848719e-01       1.305950333803e+03 
       2.525735429460e-01       1.246980836166e+03 
       2.610286324711e-01       1.186523856516e+03 
       2.697723714746e-01       1.117238821475e+03 
       2.788171631175e-01       1.040489514839e+03 
       2.881766885710e-01       9.645775168488e+02 
       2.978661331832e-01       8.982147343618e+02 
       3.079024535571e-01       8.442596829969e+02 
       3.183046955236e-01       7.982842510283e+02 
       3.290943761514e-01       7.527987015156e+02 
       3.402959472302e-01       7.037464471390e+02 
       3.519373635464e-01       6.535138187351e+02 
       3.640507874628e-01       6.075023796298e+02 
       3.766734728608e-01       5.680672576578e+02 
       3.898488880635e-01       5.324529604588e+02 
       4.036281614972e-01       4.967034087011e+02 
       4.180719697071e-01       4.605095619335e+02 
       4.332530416877e-01       4.266610401548e+02 
       4.492595376995e-01       3.963087141981e+02 
       4.661996944635e-01       3.674949356420e+02 
       4.842083467897e-01       3.388912340068e+02 
       5.034563025603e-01       3.116809586759e+02 
       5.241641862144e-01       2.863704822044e+02 
       5.466235194872e-01       2.617828352942e+02 
       5.712299858106e-01       2.379294070997e+02 
       5.985381433035e-01       2.151375561086e+02 
       6.293559090324e-01       1.927694463350e+02 
       6.649173728043e-01       1.708761594698e+02 
       7.072209284992e-01       1.490775488051e+02 
       7.597437057856e-01       1.270915158537e+02 
       8.290727248446e-01       1.044406084588e+02 
       9.287585121025e-01       8.069376617880e+01 
       1.086443105086e+00       5.624214150864e+01 
       1.337351164157e+00       3.458479657178e+01 
       1.680870842957e+00       2.006325561317e+01 
       2.116039081001e+00       1.148946142273e+01 
       2.663935179737e+00       6.525121940613e+00 
       3.353695693044e+00       3.678164967957e+00 
       4.222052731397e+00       2.059326916913e+00 
       5.315249473491e+00       1.145863376072e+00 
       6.691502632203e+00       6.339931762756e-01 
       8.424102706768e+00       3.489661913993e-01 
       1.060531696911e+01       1.911641569459e-01 
       1.335130303255e+01       1.042574413605e-01 
       1.680829466824e+01       5.662577184741e-02 
       2.116038928677e+01       3.063590212752e-02 
       2.663935179658e+01       1.651312633855e-02 
       3.353695693044e+01       8.868374470676e-03 
       4.222052731397e+01       4.745218028546e-03 
       5.315249473491e+01       2.529133470630e-03 
       6.691502632203e+01       1.342102622535e-03 
       8.424102706768e+01       7.084805579659e-04 
       1.060531696911e+02       3.715216910517e-04 
       1.335130303255e+02       1.931029808925e-04 
       1.680829466824e+02       9.915145505229e-05 
       2.116038928677e+02       5.006030189522e-05 
