# Rescaled matter transfer functions [-T_i(k)/k^2] for adiabatic (AD) mode (normalized to initial curvature=1) at redshift z=0
# for k=2.11387e-07 to 211.604 h/Mpc,
# number of wavenumbers equal to 152
# T_i   stands for (delta rho_i/rho_i)(k,z) with above normalization 
# The rescaling factor [-1/k^2] with k in 1/Mpc is here to match the CMBFAST/CAMB output convention
#
#
#    1:k (h/Mpc)              2:-T_cdm/k2              3:-T_b/k2                4:-T_g/k2                5:-T_ur/k2               6:-T_ncdm/k2             7:-T_tot/k2          
       2.113871688530e-07       1.971997850343e+07       1.971997850317e+07       2.629329920855e+07       2.629329904464e+07       1.971575019923e+07       1.972161363782e+07 
       2.661206785963e-07       1.971997849756e+07       1.971997849715e+07       2.629329600564e+07       2.629329574586e+07       1.971575018120e+07       1.972161363108e+07 
       3.350260848888e-07       1.971997848826e+07       1.971997848761e+07       2.629329092937e+07       2.629329051765e+07       1.971575015262e+07       1.972161362038e+07 
       4.217728518804e-07       1.971997847352e+07       1.971997847249e+07       2.629328288403e+07       2.629328223149e+07       1.971575010733e+07       1.972161360343e+07 
       5.309805612372e-07       1.971997845016e+07       1.971997844852e+07       2.629327013302e+07       2.629326909881e+07       1.971575003554e+07       1.972161357657e+07 
       6.684649217102e-07       1.971997841313e+07       1.971997841054e+07       2.629324992405e+07       2.629324828494e+07       1.971574992177e+07       1.972161353400e+07 
       8.415474768340e-07       1.971997835445e+07       1.971997835035e+07       2.629321789502e+07       2.629321529721e+07       1.971574974145e+07       1.972161346652e+07 
       1.059445503818e-06       1.971997826145e+07       1.971997825494e+07       2.629316713251e+07       2.629316301526e+07       1.971574945567e+07       1.972161335958e+07 
       1.333762867167e-06       1.971997811405e+07       1.971997810374e+07       2.629308667952e+07       2.629308015415e+07       1.971574900273e+07       1.972161319009e+07 
       1.679107966784e-06       1.971997788044e+07       1.971997786409e+07       2.629295917060e+07       2.629294882862e+07       1.971574828488e+07       1.972161292147e+07 
       2.113871688530e-06       1.971997751019e+07       1.971997748428e+07       2.629275708375e+07       2.629274069292e+07       1.971574714716e+07       1.972161249574e+07 
       2.661206785963e-06       1.971997692339e+07       1.971997688233e+07       2.629243680060e+07       2.629241082314e+07       1.971574534399e+07       1.972161182099e+07 
       3.350260848888e-06       1.971997599337e+07       1.971997592829e+07       2.629192919337e+07       2.629188802253e+07       1.971574248616e+07       1.972161075160e+07 
       4.217728518804e-06       1.971997451940e+07       1.971997441625e+07       2.629112470861e+07       2.629105945887e+07       1.971573795682e+07       1.972160905673e+07 
       5.309805612372e-06       1.971997218331e+07       1.971997201984e+07       2.628984973260e+07       2.628974632285e+07       1.971573077832e+07       1.972160637058e+07 
       6.684649217102e-06       1.971996848090e+07       1.971996822181e+07       2.628782914837e+07       2.628766526534e+07       1.971571940121e+07       1.972160211336e+07 
       8.415474768340e-06       1.971996261303e+07       1.971996220242e+07       2.628462703100e+07       2.628436731994e+07       1.971570136981e+07       1.972159536627e+07 
       1.059445503818e-05       1.971995331326e+07       1.971995266250e+07       2.627955275239e+07       2.627914120352e+07       1.971567279227e+07       1.972158467321e+07 
       1.333762867167e-05       1.971993857454e+07       1.971993754319e+07       2.627151240976e+07       2.627086031305e+07       1.971562750064e+07       1.972156772675e+07 
       1.679107966784e-05       1.971991521629e+07       1.971991358183e+07       2.625877396367e+07       2.625774087259e+07       1.971555572008e+07       1.972154087067e+07 
       2.113871688530e-05       1.971987819862e+07       1.971987560848e+07       2.623859653296e+07       2.623696022979e+07       1.971544196017e+07       1.972149831233e+07 
       2.661206785963e-05       1.971981953623e+07       1.971981543190e+07       2.620664669384e+07       2.620405592820e+07       1.971526167441e+07       1.972143087612e+07 
       3.350260848888e-05       1.971972657936e+07       1.971972007631e+07       2.615608296531e+07       2.615198340233e+07       1.971497596976e+07       1.972132403262e+07 
       4.217728518804e-05       1.971957929468e+07       1.971956899279e+07       2.607612880618e+07       2.606964779486e+07       1.971452323130e+07       1.972115478667e+07 
       5.309805612372e-05       1.971934596968e+07       1.971932965418e+07       2.594987084604e+07       2.593964010961e+07       1.971380587212e+07       1.972088677446e+07 
       6.684649217102e-05       1.971897643900e+07       1.971895061053e+07       2.575091820945e+07       2.573480604952e+07       1.971266939351e+07       1.972046256613e+07 
       8.415474768340e-05       1.971839143513e+07       1.971835057459e+07       2.543847592501e+07       2.541319543710e+07       1.971086934748e+07       1.971979164727e+07 
       1.059445503818e-04       1.971746592467e+07       1.971740135236e+07       2.495043772694e+07       2.491100563773e+07       1.970801935092e+07       1.971873181815e+07 
       1.333762867167e-04       1.971600322826e+07       1.971590135590e+07       2.419461013308e+07       2.413368083144e+07       1.970350962564e+07       1.971706080479e+07 
       1.679107966784e-04       1.971369530306e+07       1.971353501125e+07       2.303990350017e+07       2.294716175059e+07       1.969638019819e+07       1.971443388345e+07 
       2.113871688530e-04       1.971006293468e+07       1.970981177555e+07       2.131384148005e+07       2.117603986873e+07       1.968512558407e+07       1.971032282623e+07 
       2.661206785963e-04       1.970436835970e+07       1.970397739350e+07       1.882250990124e+07       1.862558016293e+07       1.966739888024e+07       1.970393273208e+07 
       3.350260848888e-04       1.969549363052e+07       1.969489121217e+07       1.542505556310e+07       1.516101982410e+07       1.963957503092e+07       1.969409817842e+07 
       4.217728518804e-04       1.968178383101e+07       1.968087006793e+07       1.120475342185e+07       1.088663427603e+07       1.959613229246e+07       1.967916846236e+07 
       5.309805612372e-04       1.966086781764e+07       1.965951439130e+07       6.724852786910e+06       6.407075113637e+06       1.952883170814e+07       1.965689152719e+07 
       6.684649217102e-04       1.962948443500e+07       1.962754898834e+07       3.115760425142e+06       2.895381891131e+06       1.942573913721e+07       1.962425986334e+07 
       8.415474768340e-04       1.958332668685e+07       1.958069359247e+07       1.373311213638e+06       1.319380332046e+06       1.927027057240e+07       1.957717388630e+07 
       1.059445503818e-03       1.951682636746e+07       1.951347625195e+07       9.338017165147e+05       9.676004914398e+05       1.904070005316e+07       1.950986827708e+07 
       1.333762867167e-03       1.942274618179e+07       1.941882410972e+07       4.182034435521e+05       4.049194430540e+05       1.871110508538e+07       1.941471278700e+07 
       1.679107966784e-03       1.929174574485e+07       1.928755098285e+07       2.284296700658e+05       2.137786420088e+05       1.825547412472e+07       1.928244664209e+07 
       2.113871688530e-03       1.911228342257e+07       1.910808386229e+07       6.125266586487e+04       6.373118899733e+04       1.765554586268e+07       1.910142288723e+07 
       2.661206785963e-03       1.887074941973e+07       1.886647695169e+07       3.485219432565e+04       2.968971504840e+04       1.690657881076e+07       1.885804209816e+07 
       3.350260848888e-03       1.855201024600e+07       1.854729008572e+07       8.674928772053e+03       6.487390524426e+03       1.600894294833e+07       1.853715208742e+07 
       4.217728518804e-03       1.814011595890e+07       1.813476030887e+07      -1.579716729511e+03      -1.553579607216e+03       1.494956140323e+07       1.812284975001e+07 
       5.309805612372e-03       1.761843597735e+07       1.761216897143e+07      -2.020539882890e+03      -3.013625159541e+03       1.371185708282e+07       1.759849344350e+07 
       6.684649217102e-03       1.696979412864e+07       1.696204582546e+07      -3.246232016037e+03       1.132865829638e+04       1.229867290264e+07       1.694693897835e+07 
       8.415474768340e-03       1.617703433426e+07       1.616704635965e+07      -1.780566232784e+03       9.578740918675e+03       1.075263979579e+07       1.615122586425e+07 
       1.059445503818e-02       1.522347247585e+07       1.521015515805e+07      -1.442792299580e+03       5.565797413443e+03       9.120775501110e+06       1.519486018324e+07 
       1.333762867167e-02       1.409290538472e+07       1.407479439192e+07      -1.059291116315e+03       3.170518816986e+03       7.469929903582e+06       1.406189419389e+07 
       1.679107966781e-02       1.277267052463e+07       1.274803724005e+07      -7.091421778272e+02       1.804808591456e+03       5.869521175076e+06       1.273993288526e+07 
       2.113871670917e-02       1.126291178710e+07       1.123021842540e+07      -3.954873954035e+02       1.068066050714e+03       4.392943158400e+06       1.122942244369e+07 
       2.661193529410e-02       9.598925867201e+06       9.557968975251e+06      -3.036263363188e+02      -3.101326575107e+02       3.109077366362e+06       9.565983243195e+06 
       3.348442896176e-02       7.890943891940e+06       7.844810987715e+06      -1.577549414341e+02      -1.611320056533e+02       2.077026929891e+06       7.860140799472e+06 
       4.157732672947e-02       6.413833222341e+06       6.370025661152e+06      -8.321482377548e+01      -8.499468379479e+01       1.360988526426e+06       6.386596016597e+06 
       4.838882049716e-02       5.556917587451e+06       5.520377135324e+06      -5.325416746763e+01      -5.439263017270e+01       1.002549543782e+06       5.532882097477e+06 
       5.333080081211e-02       5.100748529977e+06       5.070775147623e+06      -4.025740843760e+01      -4.111778716588e+01       8.254165161432e+05       5.078888315961e+06 
       5.740801476810e-02       4.796742484056e+06       4.772059623035e+06      -3.268108855815e+01      -3.337941221400e+01       7.130340264702e+05       4.776495278248e+06 
       6.104925253706e-02       4.561804309678e+06       4.541267712733e+06      -2.749009573856e+01      -2.807740982840e+01       6.307000204354e+05       4.542829440293e+06 
       6.444578911592e-02       4.361909823403e+06       4.344496853852e+06      -2.359256636641e+01      -2.409654535394e+01       5.651471999428e+05       4.343971356849e+06 
       6.769891516270e-02       4.180181279511e+06       4.164971238444e+06      -2.049231053285e+01      -2.093001011662e+01       5.099543429608e+05       4.163102308820e+06 
       7.086938720988e-02       4.007403115994e+06       3.993575162085e+06      -1.792924435816e+01      -1.831215557997e+01       4.619418043852e+05       3.991047057486e+06 
       7.399712481949e-02       3.838498471214e+06       3.825340509063e+06      -1.575403776901e+01      -1.609045662925e+01       4.190780379493e+05       3.822758276158e+06 
       7.711026791128e-02       3.670975591330e+06       3.657898272426e+06      -1.387551473533e+01      -1.417178684374e+01       3.803037094712e+05       3.655769271826e+06 
       8.022981465599e-02       3.504129676365e+06       3.490681313556e+06      -1.223549971078e+01      -1.249672623781e+01       3.449425442055e+05       3.489396951836e+06 
       8.337219929640e-02       3.338555204969e+06       3.324434133541e+06      -1.079546665507e+01      -1.102592449112e+01       3.125800286005e+05       3.324255237553e+06 
       8.655081991654e-02       3.175782568338e+06       3.160843906120e+06      -9.528821791468e+00      -9.732218926004e+00       2.830379690206e+05       3.161892175746e+06 
       8.977699164816e-02       3.017954591292e+06       3.002209290286e+06      -8.416173113575e+00      -8.595802553550e+00       2.561897911031e+05       3.004465857833e+06 
       9.306056683704e-02       2.867505679351e+06       2.851109466310e+06      -7.442264544897e+00      -7.601092722361e+00       2.319428564136e+05       2.854423202483e+06 
       9.641035269606e-02       2.726832958862e+06       2.710064300851e+06      -6.593951441804e+00      -6.734663409247e+00       2.102281213280e+05       2.714170655950e+06 
       9.983440071519e-02       2.597966856313e+06       2.581193797229e+06      -5.858891950052e+00      -5.983908572462e+00       1.909573375448e+05       2.585744189027e+06 
       1.033402119681e-01       2.482262597190e+06       2.465899796274e+06      -5.224771194559e+00      -5.336249738148e+00       1.739779377318e+05       2.470500328965e+06 
       1.069348855485e-01       2.380144553095e+06       2.364603460355e+06      -4.678952145466e+00      -4.778779443798e+00       1.590755505592e+05       2.368860463691e+06 
       1.106252274985e-01       2.290941835787e+06       2.276578596408e+06      -4.208483608798e+00      -4.298269440187e+00       1.460074142908e+05       2.280146860068e+06 
       1.144178316307e-01       2.212853811544e+06       2.199920940408e+06      -3.800401624536e+00      -3.881478497493e+00       1.344832961723e+05       2.202548831003e+06 
       1.183191399418e-01       2.143076146407e+06       2.131684909013e+06      -3.442240889977e+00      -3.515674784188e+00       1.241759442095e+05       2.133249984975e+06 
       1.223354879560e-01       2.078100809594e+06       2.068201203010e+06      -3.122666138978e+00      -3.189280756594e+00       1.147889974732e+05       2.068730029241e+06 
       1.264731388080e-01       2.014176098853e+06       2.005559996573e+06      -2.832114613952e+00      -2.892529314787e+00       1.060386094780e+05       2.005226503845e+06 
       1.307383088689e-01       1.947877823772e+06       1.940208029126e+06      -2.563324004251e+00      -2.618003038799e+00       9.771700410656e+04       1.939307964006e+06 
       1.351371870486e-01       1.876706092418e+06       1.869569811418e+06      -2.311637088379e+00      -2.360945293044e+00       8.968554697243e+04       1.868472169998e+06 
       1.396759494632e-01       1.799591651070e+06       1.792571723923e+06      -2.074989408353e+00      -2.119247629222e+00       8.190345438473e+04       1.791653285558e+06 
       1.443607708613e-01       1.717183482042e+06       1.709935545146e+06      -1.853542250376e+00      -1.893074889288e+00       7.440566843289e+04       1.709509173521e+06 
       1.491978340066e-01       1.631806092479e+06       1.624126033880e+06      -1.648984734400e+00      -1.684152367418e+00       6.729388492482e+04       1.624377310322e+06 
       1.541933380895e-01       1.547028577428e+06       1.538893733152e+06      -1.463607220411e+00      -1.494819407416e+00       6.070213120342e+04       1.539841346586e+06 
       1.593535071576e-01       1.466876723623e+06       1.458447527841e+06      -1.299315675193e+00      -1.327022701010e+00       5.474871038059e+04       1.459940008227e+06 
       1.646845995079e-01       1.394829827467e+06       1.386406537953e+06      -1.156795027612e+00      -1.181461780631e+00       4.950477732259e+04       1.388160792044e+06 
       1.701929189492e-01       1.332846311839e+06       1.324787046347e+06      -1.035023497754e+00      -1.057092988933e+00       4.497236892104e+04       1.326463351338e+06 
       1.758848288251e-01       1.280716378731e+06       1.273335366593e+06      -9.312728554994e-01      -9.511297603039e-01       4.107167016950e+04       1.274631594322e+06 
       1.817667696725e-01       1.236006076260e+06       1.229480642753e+06      -8.416099751268e-01      -8.595549104442e-01       3.766272718875e+04       1.230219413280e+06 
       1.878452813852e-01       1.194714225778e+06       1.189031062593e+06      -7.617688881218e-01      -7.780113320998e-01       3.458116516677e+04       1.189211248371e+06 
       1.941270307443e-01       1.152529052450e+06       1.147491647258e+06      -6.881331548171e-01      -7.028053526917e-01       3.167894115569e+04       1.147283394785e+06 
       2.006188451821e-01       1.106312327431e+06       1.101612326208e+06      -6.185073900978e-01      -6.316947350813e-01       2.886628021633e+04       1.101292353525e+06 
       2.073277536588e-01       1.055263483446e+06       1.050594330468e+06      -5.524049446048e-01      -5.641824883238e-01       2.612916679185e+04       1.050440966095e+06 
       2.142610355664e-01       1.001236976794e+06       9.964078123260e+05      -4.907382927501e-01      -5.012006242256e-01       2.351882221090e+04       9.965945163837e+05 
       2.214262786303e-01       9.479604208746e+05       9.429625397207e+05      -4.350264731340e-01      -4.443006560614e-01       2.111821221418e+04       9.434944633801e+05 
       2.288314468800e-01       8.993720483099e+05       8.943658683847e+05      -3.864416716073e-01      -3.946798132719e-01       1.899692068847e+04       8.950899705128e+05 
       2.364849599101e-01       8.577740536040e+05       8.529988737659e+05      -3.451037980413e-01      -3.524605573908e-01       1.717501206918e+04       8.536864353015e+05 
       2.443957848719e-01       8.227169352315e+05       8.183648635747e+05      -3.099345314527e-01      -3.165415224311e-01       1.561171058904e+04       8.188286462890e+05 
       2.525735429460e-01       7.912819472056e+05       7.874003456167e+05      -2.791203424421e-01      -2.850704399721e-01       1.422622913664e+04       7.875866277733e+05 
       2.610286324711e-01       7.597291265171e+05       7.562055884381e+05      -2.509232542323e-01      -2.562722228441e-01       1.293767357467e+04       7.562101118663e+05 
       2.697723714746e-01       7.256480204345e+05       7.222875712531e+05      -2.243868196636e-01      -2.291700168736e-01       1.170058999161e+04       7.222852046571e+05 
       2.788171631175e-01       6.893097090106e+05       6.859574669699e+05      -1.995426636498e-01      -2.037961455311e-01       1.052073796643e+04       6.860881701091e+05 
       2.881766885710e-01       6.532847944096e+05       6.499148984949e+05      -1.770252602187e-01      -1.807986490056e-01       9.434872919574e+03       6.501996122193e+05 
       2.978661331832e-01       6.204989647943e+05       6.172098360584e+05      -1.573791246187e-01      -1.607336764532e-01       8.476965005346e+03       6.175530621939e+05 
       3.079024535571e-01       5.920727909740e+05       5.889943390729e+05      -1.405426973551e-01      -1.435383512691e-01       7.648964236687e+03       5.892695460205e+05 
       3.183046955236e-01       5.665976678598e+05       5.637837183016e+05      -1.258538760369e-01      -1.285364292812e-01       6.919544146967e+03       5.639340982292e+05 
       3.290943761514e-01       5.414732760589e+05       5.388661778414e+05      -1.125195291152e-01      -1.149178452914e-01       6.248402859223e+03       5.389392328691e+05 
       3.402959472302e-01       5.151961850840e+05       5.126900509670e+05      -1.001275139915e-01      -1.022616650139e-01       5.614842955319e+03       5.127799093751e+05 
       3.519373635464e-01       4.885312916586e+05       4.860710913228e+05      -8.876696480814e-02      -9.065893588235e-02       5.025648603271e+03       4.862259252007e+05 
       3.640507874628e-01       4.634387906059e+05       4.610581849496e+05      -7.869679597939e-02      -8.037410640820e-02       4.497680441986e+03       4.612435519704e+05 
