# Rescaled matter transfer functions [-T_i(k)/k^2] for adiabatic (AD) mode (normalized to initial curvature=1) at redshift z=10.1
# for k=2.11387e-07 to 211.604 h/Mpc,
# number of wavenumbers equal to 152
# T_i   stands for (delta rho_i/rho_i)(k,z) with above normalization 
# The rescaling factor [-1/k^2] with k in 1/Mpc is here to match the CMBFAST/CAMB output convention
#
#
#    1:k (h/Mpc)              2:-T_cdm/k2              3:-T_b/k2                4:-T_g/k2                5:-T_ur/k2               6:-T_ncdm/k2             7:-T_tot/k2          
       2.113871688530e-07       2.232873481124e+06       2.232873481118e+06       2.977164579298e+06       2.977164578381e+06       2.245340173948e+06       2.234989748916e+06 
       2.661206785963e-07       2.232873480743e+06       2.232873480733e+06       2.977164542409e+06       2.977164540955e+06       2.245340169759e+06       2.234989748418e+06 
       3.350260848888e-07       2.232873480138e+06       2.232873480123e+06       2.977164483944e+06       2.977164481640e+06       2.245340163118e+06       2.234989747628e+06 
       4.217728518804e-07       2.232873479180e+06       2.232873479157e+06       2.977164391282e+06       2.977164387631e+06       2.245340152594e+06       2.234989746377e+06 
       5.309805612372e-07       2.232873477661e+06       2.232873477625e+06       2.977164244424e+06       2.977164238637e+06       2.245340135914e+06       2.234989744393e+06 
       6.684649217102e-07       2.232873475254e+06       2.232873475196e+06       2.977164011668e+06       2.977164002497e+06       2.245340109479e+06       2.234989741250e+06 
       8.415474768340e-07       2.232873471440e+06       2.232873471348e+06       2.977163642776e+06       2.977163628240e+06       2.245340067581e+06       2.234989736267e+06 
       1.059445503818e-06       2.232873465394e+06       2.232873465248e+06       2.977163058122e+06       2.977163035084e+06       2.245340001178e+06       2.234989728371e+06 
       1.333762867167e-06       2.232873455813e+06       2.232873455581e+06       2.977162131507e+06       2.977162094994e+06       2.245339895936e+06       2.234989715856e+06 
       1.679107966784e-06       2.232873440627e+06       2.232873440260e+06       2.977160662923e+06       2.977160605053e+06       2.245339729138e+06       2.234989696021e+06 
       2.113871688530e-06       2.232873416558e+06       2.232873415977e+06       2.977158335374e+06       2.977158243658e+06       2.245339464782e+06       2.234989664584e+06 
       2.661206785963e-06       2.232873378413e+06       2.232873377492e+06       2.977154646462e+06       2.977154501101e+06       2.245339045806e+06       2.234989614761e+06 
       3.350260848888e-06       2.232873317956e+06       2.232873316497e+06       2.977148799939e+06       2.977148569558e+06       2.245338381773e+06       2.234989535796e+06 
       4.217728518804e-06       2.232873222139e+06       2.232873219826e+06       2.977139533846e+06       2.977139168719e+06       2.245337329354e+06       2.234989410646e+06 
       5.309805612372e-06       2.232873070279e+06       2.232873066613e+06       2.977124848134e+06       2.977124269449e+06       2.245335661384e+06       2.234989212296e+06 
       6.684649217102e-06       2.232872829598e+06       2.232872823787e+06       2.977101572985e+06       2.977100655840e+06       2.245333017834e+06       2.234988897933e+06 
       8.415474768340e-06       2.232872448145e+06       2.232872438935e+06       2.977064684706e+06       2.977063231151e+06       2.245328828103e+06       2.234988399704e+06 
       1.059445503818e-05       2.232871843583e+06       2.232871828987e+06       2.977006221591e+06       2.977003917916e+06       2.245322187858e+06       2.234987610067e+06 
       1.333762867167e-05       2.232870885423e+06       2.232870862290e+06       2.976913565977e+06       2.976909915033e+06       2.245311663858e+06       2.234986358589e+06 
       1.679107966784e-05       2.232869366851e+06       2.232869330188e+06       2.976766722197e+06       2.976760936181e+06       2.245294984644e+06       2.234984375155e+06 
       2.113871688530e-05       2.232866960104e+06       2.232866901998e+06       2.976534004237e+06       2.976524834874e+06       2.245268550375e+06       2.234981231693e+06 
       2.661206785963e-05       2.232863145735e+06       2.232863053644e+06       2.976165205654e+06       2.976150675338e+06       2.245226656147e+06       2.234976249811e+06 
       3.350260848888e-05       2.232857100539e+06       2.232856954588e+06       2.975580786009e+06       2.975557762399e+06       2.245160261447e+06       2.234968354485e+06 
       4.217728518804e-05       2.232847519975e+06       2.232847288669e+06       2.974654761086e+06       2.974618284654e+06       2.245055040921e+06       2.234955842305e+06 
       5.309805612372e-05       2.232832336880e+06       2.232831970311e+06       2.973187657413e+06       2.973129880141e+06       2.244888297671e+06       2.234936014521e+06 
       6.684649217102e-05       2.232808275996e+06       2.232807695089e+06       2.970863828021e+06       2.970772342512e+06       2.244624077774e+06       2.234904596341e+06 
       8.415474768340e-05       2.232770148844e+06       2.232769228331e+06       2.967184253736e+06       2.967039473019e+06       2.244205443884e+06       2.234854818803e+06 
       1.059445503818e-04       2.232709738399e+06       2.232708279897e+06       2.961361171039e+06       2.961132245892e+06       2.243542271312e+06       2.234775969194e+06 
       1.333762867167e-04       2.232614037019e+06       2.232611726482e+06       2.952153897078e+06       2.951792420329e+06       2.242492010436e+06       2.234651107535e+06 
       1.679107966784e-04       2.232462467748e+06       2.232458808383e+06       2.937615689478e+06       2.937046153268e+06       2.240829458508e+06       2.234453482243e+06 
       2.113871688530e-04       2.232222515436e+06       2.232216722208e+06       2.914710099150e+06       2.913815847919e+06       2.238199505040e+06       2.234140936055e+06 
       2.661206785963e-04       2.231842889954e+06       2.231833724468e+06       2.878746310317e+06       2.877349919932e+06       2.234043870069e+06       2.233647255186e+06 
       3.350260848888e-04       2.231242907962e+06       2.231228421833e+06       2.822590383488e+06       2.820428951932e+06       2.227489049308e+06       2.232868988763e+06 
       4.217728518804e-04       2.230296200913e+06       2.230273341276e+06       2.735670927755e+06       2.732371993413e+06       2.217178745701e+06       2.231645849816e+06 
       5.309805612372e-04       2.228806206628e+06       2.228770219764e+06       2.603003546327e+06       2.598081121028e+06       2.201032830420e+06       2.229732737735e+06 
       6.684649217102e-04       2.226470485108e+06       2.226414036458e+06       2.404993282118e+06       2.397913814787e+06       2.175924444006e+06       2.226762545818e+06 
       8.415474768340e-04       2.222831571433e+06       2.222743488189e+06       2.119923903880e+06       2.110343810792e+06       2.137307069316e+06       2.222202952500e+06 
       1.059445503818e-03       2.217215736703e+06       2.217079267531e+06       1.732902036094e+06       1.721218477432e+06       2.078935801712e+06       2.215319609268e+06 
       1.333762867167e-03       2.208670801327e+06       2.208461199331e+06       1.256075615288e+06       1.244279263123e+06       1.993077661655e+06       2.205171528238e+06 
       1.679107966784e-03       2.195932036353e+06       2.195612794910e+06       7.582068322449e+05       7.502076210227e+05       1.872027539475e+06       2.190664440632e+06 
       2.113871688530e-03       2.177461632978e+06       2.176977215670e+06       3.722424251167e+05       3.712180306648e+05       1.712059573887e+06       2.170622688752e+06 
       2.661206785963e-03       2.151580963704e+06       2.150841806904e+06       2.058365785972e+05       2.077134964645e+05       1.519852004902e+06       2.143691279067e+06 
       3.350260848888e-03       2.116602738959e+06       2.115461753130e+06       1.690133674358e+05       1.650783725739e+05       1.316391562822e+06       2.108009334945e+06 
       4.217728518804e-03       2.070792464436e+06       2.069023930195e+06       9.110454098259e+04       8.846904911808e+04       1.126356514409e+06       2.061473314406e+06 
       5.309805612372e-03       2.012296144972e+06       2.009564706782e+06       6.093297965627e+04       5.925656164509e+04       9.535408400043e+05       2.002478921127e+06 
       6.684649217102e-03       1.939243466079e+06       1.935037809871e+06       3.245760351217e+04       3.139951463432e+04       7.841638363203e+05       1.928961092382e+06 
       8.415474768340e-03       1.849718408623e+06       1.843293351092e+06       2.246162664414e+04       1.995988802586e+04       6.202988446948e+05       1.839032925065e+06 
       1.059445503818e-02       1.741824943161e+06       1.732123560199e+06       1.377794224173e+04       1.171374731199e+04       4.761126117399e+05       1.730771180460e+06 
       1.333762867167e-02       1.613755863384e+06       1.599372206036e+06       7.628227069777e+03       6.913967451706e+03       3.488672908943e+05       1.602318554603e+06 
       1.679107966781e-02       1.464075490611e+06       1.443347708363e+06       5.326519379088e+03       3.998654472470e+03       2.455436184540e+05       1.452236279507e+06 
       2.113871670917e-02       1.292771825727e+06       1.264208001939e+06       3.037002010496e+03       2.184891183180e+03       1.642819828335e+05       1.280523874906e+06 
       2.661193529410e-02       1.103715463225e+06       1.067061997903e+06       1.485057670630e+03       1.281823560895e+03       1.040336701308e+05       1.091216179384e+06 
       3.348442896176e-02       9.091135820482e+05       8.672008236407e+05       8.273827919781e+02       6.291100604840e+02       6.221077744596e+04       8.969094476290e+05 
       4.157732672947e-02       7.398786389525e+05       6.997321785631e+05       4.218297086943e+02       3.445618807237e+02       3.683938943097e+04       7.289571119186e+05 
       4.838882049716e-02       6.409208626644e+05       6.073222600834e+05       2.787487534650e+02       2.052426906900e+02       2.533371033330e+04       6.316180987495e+05 
       5.333080081211e-02       5.878886159977e+05       5.603103650684e+05       1.979820114652e+02       1.610216217581e+02       1.996679009502e+04       5.798462023523e+05 
       5.740801476810e-02       5.524243140241e+05       5.297288029295e+05       1.804516852225e+02       1.286619375272e+02       1.670641357964e+04       5.453590260708e+05 
       6.104925253706e-02       5.250059058267e+05       5.061530559280e+05       1.276773313248e+02       1.053053407987e+02       1.439145432169e+04       5.187072641984e+05 
       6.444578911592e-02       5.017256518002e+05       4.857773574548e+05       1.169107812159e+02       9.890090494333e+01       1.260854798679e+04       4.960231148616e+05 
       6.769891516270e-02       4.806398189958e+05       4.667465967608e+05       1.060533979665e+02       7.907935611456e+01       1.114109523609e+04       4.753883693297e+05 
       7.086938720988e-02       4.606815422598e+05       4.480827687487e+05       8.960866083112e+01       7.438624945181e+01       9.895207403217e+03       4.557565819758e+05 
       7.399712481949e-02       4.412563457200e+05       4.292897055628e+05       7.335958709080e+01       6.087460386597e+01       8.835323962900e+03       4.365522736947e+05 
       7.711026791128e-02       4.220637814919e+05       4.101790809321e+05       7.223543987201e+01       5.773589832462e+01       7.884505817581e+03       4.174941191626e+05 
       8.022981465599e-02       4.030059830394e+05       3.907795885223e+05       6.137334136698e+01       4.875488406429e+01       7.032579664493e+03       3.985044369218e+05 
       8.337219929640e-02       3.841322035134e+05       3.712790581735e+05       5.377332259577e+01       4.316961138661e+01       6.289073504945e+03       3.796537384788e+05 
       8.655081991654e-02       3.655978839274e+05       3.519783841361e+05       4.745537369347e+01       3.809842959989e+01       5.602875580171e+03       3.611188314002e+05 
       8.977699164816e-02       3.476286758950e+05       3.332481577308e+05       4.190653104507e+01       3.364451085521e+01       5.006719983683e+03       3.431465153815e+05 
       9.306056683704e-02       3.304849532762e+05       3.154839250659e+05       3.705081466812e+01       2.974680532857e+01       4.467314289170e+03       3.260163229243e+05 
       9.641035269606e-02       3.144255591376e+05       2.990596064378e+05       3.282269832121e+01       2.635269152158e+01       3.997876657623e+03       3.100033206152e+05 
       9.983440071519e-02       2.996715098723e+05       2.842807803459e+05       2.916051550010e+01       2.341266983328e+01       3.587915933073e+03       2.953401695665e+05 
       1.033402119681e-01       2.863719220867e+05       2.713413888637e+05       2.600262325400e+01       2.087728255142e+01       3.224290776049e+03       2.821819220887e+05 
       1.069348855485e-01       2.745756288990e+05       2.602888284541e+05       2.328571264961e+01       1.869575654531e+01       2.911054386722e+03       2.705768846045e+05 
       1.106252274985e-01       2.642126640951e+05       2.510031555321e+05       2.094486170990e+01       1.681603426855e+01       2.642987964784e+03       2.604477698034e+05 
       1.144178316307e-01       2.550898503845e+05       2.431960054062e+05       1.891506846054e+01       1.518599791232e+01       2.408292201138e+03       2.515878407975e+05 
       1.183191399418e-01       2.469038962959e+05       2.364334829173e+05       1.713385032797e+01       1.375554966999e+01       2.194327194543e+03       2.436754643360e+05 
       1.223354879560e-01       2.392735339319e+05       2.301845434093e+05       1.554443926355e+01       1.247917074776e+01       2.004246581801e+03       2.363086225721e+05 
       1.264731388080e-01       2.317892680260e+05       2.238922252044e+05       1.409898784718e+01       1.131848547426e+01       1.834010814436e+03       2.290575862258e+05 
       1.307383088689e-01       2.240754977452e+05       2.170598966898e+05       1.276122737646e+01       1.024439183730e+01       1.670650856786e+03       2.215303694383e+05 
       1.351371870486e-01       2.158557387661e+05       2.093393210986e+05       1.150799479751e+01       9.238288596329e+00       1.518962606848e+03       2.134411720608e+05 
       1.396759494632e-01       2.070083308155e+05       2.006031099171e+05       1.032914343056e+01       8.292002706750e+00       1.371116571726e+03       2.046682092628e+05 
       1.443607708613e-01       1.975985784722e+05       1.909826797352e+05       9.225693414351e+00       7.406312844173e+00       1.233207609342e+03       1.952866448425e+05 
       1.491978340066e-01       1.878750527544e+05       1.808558465220e+05       8.206299986019e+00       6.588120014789e+00       1.102476233703e+03       1.855634799812e+05 
       1.541933380895e-01       1.782235363766e+05       1.707766189060e+05       7.282597319379e+00       5.846720762914e+00       9.854126846099e+02       1.759081177504e+05 
       1.593535071576e-01       1.690817938012e+05       1.613533333460e+05       6.464234825425e+00       5.189829452961e+00       8.797765641034e+02       1.667819351963e+05 
       1.646845995079e-01       1.608303925771e+05       1.530976526109e+05       5.754686765085e+00       4.620221394057e+00       7.881945399855e+02       1.585833759599e+05 
       1.701929189492e-01       1.536860592676e+05       1.462816910661e+05       5.148823049365e+00       4.133783876405e+00       7.094089354411e+02       1.515363453192e+05 
       1.758848288251e-01       1.476301112108e+05       1.408476273343e+05       4.632929715737e+00       3.719529733047e+00       6.416541705876e+02       1.456162003788e+05 
       1.817667696725e-01       1.424010082711e+05       1.364078902757e+05       4.187247480458e+00       3.361627859726e+00       5.827342891589e+02       1.405435357918e+05 
       1.878452813852e-01       1.375646550232e+05       1.323515902900e+05       3.790366765751e+00       3.042921754186e+00       5.303804965532e+02       1.358596368126e+05 
       1.941270307443e-01       1.326505756750e+05       1.280373980585e+05       3.424167013831e+00       2.748885469054e+00       4.812834975329e+02       1.310705640382e+05 
       2.006188451821e-01       1.273137476375e+05       1.230149911297e+05       3.077688721425e+00       2.470726475610e+00       4.351772746054e+02       1.258171998529e+05 
       2.073277536588e-01       1.214624899831e+05       1.171927306942e+05       2.748564194903e+00       2.206533817164e+00       3.903253339938e+02       1.200084616944e+05 
       2.142610355664e-01       1.152946889624e+05       1.108747605716e+05       2.441446654218e+00       1.960022587323e+00       3.481332249780e+02       1.138574440143e+05 
       2.214262786303e-01       1.092142011083e+05       1.046338373626e+05       2.164015166386e+00       1.737335571433e+00       3.100218657106e+02       1.077915913976e+05 
       2.288314468800e-01       1.036505128954e+05       9.905726507538e+04       1.922180622439e+00       1.543203532470e+00       2.766946511756e+02       1.022620880656e+05 
       2.364849599101e-01       9.885709055387e+04       9.447316363623e+04       1.716547909465e+00       1.378110124573e+00       2.480994007256e+02       9.753233436863e+04 
       2.443957848719e-01       9.478824844537e+04       9.079335771742e+04       1.541695738639e+00       1.237712766354e+00       2.238564608289e+02       9.355034570515e+04 
       2.525735429460e-01       9.112797888181e+04       8.756800126497e+04       1.388516261997e+00       1.114714491926e+00       2.023884111133e+02       8.998139505336e+04 
       2.610286324711e-01       8.746827309751e+04       8.424026111992e+04       1.248295625402e+00       1.002131551927e+00       1.826005141136e+02       8.639703026531e+04 
       2.697723714746e-01       8.354370276715e+04       8.046685871695e+04       1.116258112121e+00       8.961329032639e-01       1.638826817886e+02       8.252146827176e+04 
       2.788171631175e-01       7.938039411845e+04       7.631001768968e+04       9.925941378671e-01       7.968653859158e-01       1.464145519051e+02       7.838626887581e+04 
       2.881766885710e-01       7.525645115503e+04       7.216728426889e+04       8.805141042274e-01       7.068965430315e-01       1.303386672189e+02       7.428626267944e+04 
       2.978661331832e-01       7.149111044597e+04       6.847388775357e+04       7.827635373657e-01       6.284238331133e-01       1.162068866594e+02       7.055661047190e+04 
       3.079024535571e-01       6.820857078496e+04       6.538429593665e+04       6.990341770616e-01       5.612000330875e-01       1.042164876959e+02       6.732539989019e+04 
       3.183046955236e-01       6.525705888725e+04       6.267672966020e+04       6.260006700521e-01       5.025610642344e-01       9.350766415187e+01       6.443097790930e+04 
       3.290943761514e-01       6.235292562189e+04       5.996380417678e+04       5.596860936437e-01       4.493197787385e-01       8.399699109942e+01       6.157544334993e+04 
       3.402959472302e-01       5.933021376636e+04       5.703396927077e+04       4.980334868797e-01       3.998259668733e-01       7.492146805173e+01       5.858684180179e+04 
       3.519373635464e-01       5.627016386360e+04       5.401510014176e+04       4.415039578600e-01       3.544466044479e-01       6.660705039083e+01       5.555312393923e+04 
       3.640507874628e-01       5.338601027944e+04       5.120294426483e+04       3.914056568016e-01       3.142282306664e-01       5.924109634143e+01       5.269894173187e+04 
