# Transfer functions T_i(k) for adiabatic (AD) mode (normalized to initial curvature=1) at redshift z=9.9
# for k=2.11387e-07 to 1060.53 h/Mpc,
# number of wavenumbers equal to 159
# t_i   stands for theta_i(k,z) with above normalization 
# t_tot stands for (sum_i [rho_i+p_i] theta_i)/(sum_i [rho_i+p_i]))(k,z)
#
#    1:k (h/Mpc)              2:t_g                    3:t_b                    4:t_cdm                  5:t_ur                   6:t_ncdm[0]              7:t_tot              
       2.113871688530e-07       1.908098743166e-11       1.908089947835e-11       1.908089944003e-11       1.908098982710e-11       1.908071120439e-11       1.908089906060e-11 
       2.661206785963e-07       3.024132624774e-11       3.024118767139e-11       3.024118761086e-11       3.024133002556e-11       3.024088923218e-11       3.024118700629e-11 
       3.350260848888e-07       4.792927009201e-11       4.792905244574e-11       4.792905235031e-11       4.792927603471e-11       4.792857934480e-11       4.792905138439e-11 
       4.217728518804e-07       7.596276914831e-11       7.596242893413e-11       7.596242878400e-11       7.596277846124e-11       7.596167887247e-11       7.596242723467e-11 
       5.309805612372e-07       1.203928634236e-10       1.203923364084e-10       1.203923361734e-10       1.203928779099e-10       1.203911469946e-10       1.203923336704e-10 
       6.684649217102e-07       1.908097997485e-10       1.908089943451e-10       1.908089939799e-10       1.908098220413e-10       1.908071076914e-10       1.908089898963e-10 
       8.415474768340e-07       3.024130763452e-10       3.024118758367e-10       3.024118752761e-10       3.024131099746e-10       3.024088816925e-10       3.024118685078e-10 
       1.059445503818e-06       4.792922324521e-10       4.792905220771e-10       4.792905212351e-10       4.792922814345e-10       4.792857665083e-10       4.792905097578e-10 
       1.333762867167e-06       7.596265049095e-10       7.596242814837e-10       7.596242802683e-10       7.596265715738e-10       7.596167185075e-10       7.596242601758e-10 
       1.679107966784e-06       1.203925661278e-09       1.203923345793e-09       1.203923344159e-09       1.203925739830e-09       1.203911295529e-09       1.203923307600e-09 
       2.113871688530e-06       1.908090502634e-09       1.908089892328e-09       1.908089890481e-09       1.908090558363e-09       1.908070631774e-09       1.908089820601e-09 
       2.661206785963e-06       3.024111916618e-09       3.024118626007e-09       3.024118624946e-09       3.024111832455e-09       3.024087693440e-09       3.024118484237e-09 
       3.350260848888e-06       4.792874983242e-09       4.792904888252e-09       4.792904891249e-09       4.792874416893e-09       4.792854842950e-09       4.792904593043e-09 
       4.217728518804e-06       7.596146180270e-09       7.596241988518e-09       7.596242005022e-09       7.596144195017e-09       7.596160108320e-09       7.596241343490e-09 
       5.309805612372e-06       1.203895791284e-08       1.203923136015e-08       1.203923141583e-08       1.203895203446e-08       1.203909514924e-08       1.203922989288e-08 
       6.684649217102e-06       1.908015482190e-08       1.908089367130e-08       1.908089383373e-08       1.908013864248e-08       1.908066161466e-08       1.908089022806e-08 
       8.415474768340e-06       3.023923481412e-08       3.024117307877e-08       3.024117352250e-08       3.023919193372e-08       3.024076466059e-08       3.024116481396e-08 
       1.059445503818e-05       4.792401659336e-08       4.792901576611e-08       4.792901693735e-08       4.792390533538e-08       4.792826640278e-08       4.792899561502e-08 
       1.333762867167e-05       7.594957282146e-08       7.596233671706e-08       7.596233974878e-08       7.594928774086e-08       7.596089269098e-08       7.596228706614e-08 
       1.679107966784e-05       1.203597167364e-07       1.203921047345e-07       1.203921124918e-07       1.203589917809e-07       1.203891721662e-07       1.203919815515e-07 
       2.113871688530e-05       1.907265415723e-07       1.908084120012e-07       1.908084317113e-07       1.907247066070e-07       1.908021466686e-07       1.908081050186e-07 
       2.661206785963e-05       3.022039589430e-07       3.024104128884e-07       3.024104627508e-07       3.021993280702e-07       3.023964202264e-07       3.024096456923e-07 
       3.350260848888e-05       4.787670282098e-07       4.792868475223e-07       4.792869733204e-07       4.787553634595e-07       4.792544661349e-07       4.792849267684e-07 
       4.217728518804e-05       7.583075493464e-07       7.596150521643e-07       7.596153689877e-07       7.582782042531e-07       7.595381010584e-07       7.596102381420e-07 
       5.309805612372e-05       1.200613754873e-06       1.203900160942e-06       1.203900957928e-06       1.200540000849e-06       1.203713832924e-06       1.203888088125e-06 
       6.684649217102e-05       1.899776053768e-06       1.908031660106e-06       1.908033663258e-06       1.899590836658e-06       1.907574707256e-06       1.908001375405e-06 
       8.415474768340e-05       3.003245583837e-06       3.023972372349e-06       3.023977403462e-06       3.002780855411e-06       3.022842298482e-06       3.023896405147e-06 
       1.059445503818e-04       4.740535130007e-06       4.792537585827e-06       4.792550212565e-06       4.739370370013e-06       4.789727782477e-06       4.792347088607e-06 
       1.333762867167e-04       7.464968433496e-06       7.595319635447e-06       7.595351295761e-06       7.462053793451e-06       7.588310167765e-06       7.594842268956e-06 
       1.679107966784e-04       1.171062156006e-05       1.203691561611e-05       1.203699489696e-05       1.170334565255e-05       1.201939644041e-05       1.203572082469e-05 
       2.113871688530e-04       1.826003632941e-05       1.907508113418e-05       1.907527926875e-05       1.824194129444e-05       1.903125794415e-05       1.907209662443e-05 
       2.661206785963e-04       2.819746774803e-05       3.022658991494e-05       3.022708356008e-05       2.815273111404e-05       3.011697489450e-05       3.021915846903e-05 
       3.350260848888e-04       4.286724578851e-05       4.789245301725e-05       4.789367697980e-05       4.275767366959e-05       4.761853578366e-05       4.787404210943e-05 
       4.217728518804e-04       6.352856667981e-05       7.587076605941e-05       7.587377771018e-05       6.326415606914e-05       7.518768710455e-05       7.582551902845e-05 
       5.309805612372e-04       9.024579769877e-05       1.201631562854e-04       1.201704777671e-04       8.962266113584e-05       1.184658667242e-04       1.200533601284e-04 
       6.684649217102e-04       1.192099038749e-04       1.902374942460e-04       1.902549569871e-04       1.177956833573e-04       1.860448925370e-04       1.899763536893e-04 
       8.415474768340e-04       1.378058118118e-04       3.009925144325e-04       3.010329324904e-04       1.347831955246e-04       2.907323994759e-04       3.003906902759e-04 
       1.059445503818e-03       1.196787731519e-04       4.757870496834e-04       4.758762969325e-04       1.138018881771e-04       4.510419087612e-04       4.744665851811e-04 
       1.333762867167e-03       3.342514884190e-05       7.510547696977e-04       7.512380327882e-04       2.350872372100e-05       6.926923866023e-04       7.483668850325e-04 
       1.679107966784e-03      -1.022049394433e-04       1.183231974260e-03       1.183569990138e-03      -1.164505863570e-04       1.050081001999e-03       1.178321946093e-03 
       2.113871688530e-03      -1.229844640111e-04       1.858996904099e-03       1.859539920879e-03      -1.448429337072e-04       1.569155584944e-03       1.851126608454e-03 
       2.661206785963e-03       1.294167359366e-04       2.910186581966e-03       2.910977668485e-03       7.899844220153e-05       2.315824230372e-03       2.898439819731e-03 
       3.350260848888e-03       1.555165336216e-04       4.535243239990e-03       4.536509686012e-03       6.957373344687e-05       3.387233838093e-03       4.515954456953e-03 
       4.217728518804e-03      -8.756787428065e-05       7.029220578360e-03       7.031430602636e-03      -1.495702613911e-04       4.883276158738e-03       6.997039163628e-03 
       5.309805612372e-03       3.404184923254e-04       1.082188131196e-02       1.082545374349e-02       1.282966185410e-04       6.812866992040e-03       1.077141933304e-02 
       6.684649217102e-03       1.764919583507e-04       1.652219062491e-02       1.652853986251e-02       3.319438805113e-05       9.168100879994e-03       1.644021745463e-02 
       8.415474768340e-03      -2.485732890985e-05       2.496559203980e-02       2.497695223036e-02      -1.608279009466e-04       1.196980200014e-02       2.483515314386e-02 
       1.059445503818e-02      -5.149752284527e-06       3.723816322797e-02       3.725925248365e-02      -1.213041033855e-04       1.504999043846e-02       3.703674124722e-02 
       1.333762867167e-02       4.969469838572e-04       5.463528180355e-02       5.467577243539e-02       2.253365757521e-04       1.814092073553e-02       5.433464958750e-02 
       1.679107966781e-02      -1.208790641927e-04       7.846937237511e-02       7.854845832290e-02      -1.590269895120e-04       2.087899838947e-02       7.803302028676e-02 
       2.113871670917e-02      -3.158984522877e-04       1.096326662908e-01       1.097864881669e-01      -3.287498664671e-05       2.279874579345e-02       1.090351880470e-01 
       2.661193529410e-02       2.999537930887e-04       1.480114841703e-01       1.482977221467e-01      -1.758977041084e-04       2.358702756956e-02       1.472452400956e-01 
       3.348442896176e-02       5.204104803238e-05       1.925254856206e-01       1.930061180833e-01      -1.185364696553e-04       2.289637874897e-02       1.915895057803e-01 
       4.157732672947e-02       3.180568270289e-04       2.412163666991e-01       2.418751053033e-01      -2.390960985511e-04       2.135428284665e-02       2.400639690125e-01 
       4.838882049716e-02       4.849043003090e-05       2.831715084306e-01       2.838684516908e-01       1.703788931328e-04       2.017684479611e-02       2.817360211426e-01 
       5.333080081211e-02      -5.524904425808e-06       3.158819705592e-01       3.165364401139e-01       1.087980829299e-05       1.953409526346e-02       3.141661241447e-01 
       5.740801476810e-02      -6.178494054485e-04       3.443663688376e-01       3.449561321064e-01       6.936182695197e-05       1.903071582766e-02       3.423822047663e-01 
       6.104925253706e-02       3.677304446319e-04       3.705002101942e-01       3.710258964606e-01       2.641233695335e-04       1.864689175890e-02       3.682702243949e-01 
       6.444578911592e-02       1.133173025815e-04       3.948931629395e-01       3.953680402981e-01      -2.220784657411e-04       1.828320805684e-02       3.924375603008e-01 
       6.769891516270e-02      -4.091009626294e-04       4.176895802936e-01       4.181355364989e-01       1.313096995393e-04       1.781993055345e-02       4.150384348174e-01 
       7.086938720988e-02      -1.194276504241e-04       4.388490011948e-01       4.392939598295e-01      -8.957237294184e-05       1.752885882262e-02       4.360398138498e-01 
       7.399712481949e-02       6.825665262836e-04       4.582742792718e-01       4.587496726357e-01       7.312748673022e-05       1.698074493565e-02       4.553469558211e-01 
       7.711026791128e-02      -6.137542145032e-04       4.758862157999e-01       4.764246968559e-01      -7.394167157636e-05       1.657763487287e-02       4.728764981317e-01 
       8.022981465599e-02      -1.118721636719e-05       4.916769182899e-01       4.923093076049e-01      -2.966458708297e-06       1.601929210823e-02       4.886284793597e-01 
       8.337219929640e-02      -1.507386183037e-05       5.057486976321e-01       5.065011435795e-01      -1.259319509094e-06       1.546496906876e-02       5.026945851649e-01 
       8.655081991654e-02      -1.433398286047e-05       5.183413620879e-01       5.192323747078e-01      -1.198703730061e-06       1.506634730391e-02       5.153086191297e-01 
       8.977699164816e-02      -1.361678868235e-05       5.298449295257e-01       5.308825496798e-01      -1.140404412902e-06       1.436265848582e-02       5.268472016194e-01 
       9.306056683704e-02      -1.293332897619e-05       5.407935503371e-01       5.419733141163e-01      -1.084351824099e-06       1.388779016120e-02       5.378320662348e-01 
       9.641035269606e-02      -1.229550892153e-05       5.518377097929e-01       5.531415709733e-01      -1.032034560467e-06       1.330776240937e-02       5.488962529368e-01 
       9.983440071519e-02      -1.171240261520e-05       5.636916172122e-01       5.650883191228e-01      -9.837845676484e-07       1.296055183346e-02       5.607388937676e-01 
       1.033402119681e-01      -1.119086111186e-05       5.770564262713e-01       5.785036554610e-01      -9.406978673121e-07       1.244074170791e-02       5.740451685530e-01 
       1.069348855485e-01      -1.073241053502e-05       5.925234958803e-01       5.939719895473e-01      -9.026208815056e-07       1.201464778363e-02       5.893972421093e-01 
       1.106252274985e-01      -1.033365776565e-05       6.104679411166e-01       6.118674548773e-01      -8.692352963535e-07       1.173794889054e-02       6.071668411497e-01 
       1.144178316307e-01      -9.986241834293e-06       6.309484601117e-01       6.322551380419e-01      -8.401364070629e-07       1.139254343516e-02       6.274167592769e-01 
       1.183191399418e-01      -9.676748021134e-06       6.536348474056e-01       6.548191093390e-01      -8.141678607698e-07       1.105196087967e-02       6.498314671994e-01 
       1.223354879560e-01      -9.388422016603e-06       6.777876834374e-01       6.788413265053e-01      -7.898133110763e-07       1.089084889116e-02       6.736955776600e-01 
       1.264731388080e-01      -9.103826977185e-06       7.023130654101e-01       7.032539773078e-01      -7.658481492512e-07       1.071169905943e-02       6.979443904838e-01 
       1.307383088689e-01      -8.806975305791e-06       7.259063973547e-01       7.267792362643e-01      -7.409902201948e-07       1.045372866016e-02       7.213051552542e-01 
       1.351371870486e-01      -8.486232886165e-06       7.472827814337e-01       7.481543326513e-01      -7.142344994465e-07       1.018216944259e-02       7.425212591675e-01 
       1.396759494632e-01      -8.136861645331e-06       7.654670130859e-01       7.664157821805e-01      -6.852276221544e-07       9.791466956847e-03       7.606341326600e-01 
       1.443607708613e-01      -7.762120213355e-06       7.800883526763e-01       7.811892898291e-01      -6.541651227573e-07       9.352768985610e-03       7.752730695076e-01 
       1.491978340066e-01      -7.373127882035e-06       7.916003089799e-01       7.929071967232e-01      -6.218848417038e-07       8.951803481583e-03       7.868708170804e-01 
       1.541933380895e-01      -6.986865714522e-06       8.013358148737e-01       8.028654001054e-01      -5.897774553644e-07       8.564463600037e-03       7.967193365029e-01 
       1.593535071576e-01      -6.622307299550e-06       8.113243169845e-01       8.130471470807e-01      -5.593591659378e-07       8.263203562428e-03       8.067946370663e-01 
       1.646845995079e-01      -6.295865788163e-06       8.238487942479e-01       8.256912823926e-01      -5.320666274309e-07       7.869431168439e-03       8.193251694956e-01 
       1.701929189492e-01      -6.016485749529e-06       8.408043861952e-01       8.426644138903e-01      -5.085428983526e-07       7.612402880779e-03       8.361690167300e-01 
       1.758848288251e-01      -5.783060242356e-06       8.630196277233e-01       8.647940246369e-01      -4.888062504804e-07       7.294496832808e-03       8.581469582431e-01 
       1.817667696725e-01      -5.583862039177e-06       8.897802584624e-01       8.913976053427e-01      -4.718575280779e-07       7.085485857511e-03       8.845772495518e-01 
       1.878452813852e-01      -5.399953671201e-06       9.188058461860e-01       9.202539185182e-01      -4.561812662663e-07       6.958084517219e-03       9.132458065231e-01 
       1.941270307443e-01      -5.211093260294e-06       9.468298768658e-01       9.481659036907e-01      -4.401740048274e-07       6.784200242728e-03       9.409679725839e-01 
       2.006188451821e-01      -5.002668446989e-06       9.707184511353e-01       9.720540815877e-01      -4.226593762244e-07       6.460376952428e-03       9.646782265582e-01 
       2.073277536588e-01      -4.771015020866e-06       9.887850951209e-01       9.902468414703e-01      -4.032190739497e-07       6.311663927133e-03       9.827162450573e-01 
       2.142610355664e-01      -4.525205140120e-06       1.001738652854e+00       1.003416248599e+00      -3.826889750430e-07       5.929436208735e-03       9.957532869471e-01 
       2.214262786303e-01      -4.282822556123e-06       1.012693273284e+00       1.014597741200e+00      -3.624008756531e-07       5.633494730609e-03       1.006815739533e+00 
       2.288314468800e-01      -4.062397942449e-06       1.025981442739e+00       1.028035501730e+00      -3.438584212255e-07       5.475882409301e-03       1.020130270332e+00 
       2.364849599101e-01      -3.874721377921e-06       1.045102259989e+00       1.047174102956e+00      -3.280237206569e-07       5.169823916368e-03       1.039123340650e+00 
       2.443957848719e-01      -3.717439002078e-06       1.070755030584e+00       1.072724714446e+00      -3.146654796734e-07       4.972159463651e-03       1.064499983839e+00 
       2.525735429460e-01      -3.576699150573e-06       1.100153492554e+00       1.101979257159e+00      -3.026834003842e-07       4.821589920268e-03       1.093559803804e+00 
       2.610286324711e-01      -3.434901193423e-06       1.128349069701e+00       1.130093468171e+00      -2.906562741757e-07       4.662755561936e-03       1.121477997597e+00 
       2.697723714746e-01      -3.280828764212e-06       1.151140864847e+00       1.152934099833e+00      -2.776716537789e-07       4.413480681682e-03       1.144141101584e+00 
       2.788171631175e-01      -3.115883511582e-06       1.167900378268e+00       1.169856680332e+00      -2.637881058614e-07       4.308905158734e-03       1.160912774756e+00 
       2.881766885710e-01      -2.952330241615e-06       1.182243336793e+00       1.184383317642e+00      -2.500399192049e-07       4.066130590716e-03       1.175302517522e+00 
       2.978661331832e-01      -2.803912354087e-06       1.199619149252e+00       1.201856575744e+00      -2.375270303275e-07       3.811450050082e-03       1.192630406082e+00 
       3.079024535571e-01      -2.675782489123e-06       1.223184927924e+00       1.225395369418e+00      -2.266622763501e-07       3.685985764291e-03       1.215998731023e+00 
       3.183046955236e-01      -2.561224214828e-06       1.251151894002e+00       1.253274679087e+00      -2.169255143199e-07       3.585092923939e-03       1.243684955202e+00 
       3.290943761514e-01      -2.448004220501e-06       1.278212679448e+00       1.280300124941e+00      -2.073390647817e-07       3.349628686762e-03       1.270515013662e+00 
       3.402959472302e-01      -2.329099456827e-06       1.300348076960e+00       1.302512241030e+00      -1.972904385752e-07       3.261741782308e-03       1.292550535733e+00 
       3.519373635464e-01      -2.208236799168e-06       1.318738420392e+00       1.321040050614e+00      -1.870917364543e-07       3.153388651083e-03       1.310919515843e+00 
       3.640507874628e-01      -2.094680230121e-06       1.338545596441e+00       1.340936670091e+00      -1.775027178394e-07       2.943694066239e-03       1.330654243661e+00 
       3.766734728608e-01      -1.992823443818e-06       1.363253086714e+00       1.365638931325e+00      -1.688679545740e-07       2.838166703693e-03       1.355174127466e+00 
