# Rescaled matter transfer functions [-T_i(k)/k^2] for adiabatic (AD) mode (normalized to initial curvature=1) at redshift z=9.9
# for k=2.11387e-07 to 211.604 h/Mpc,
# number of wavenumbers equal to 152
# T_i   stands for (delta rho_i/rho_i)(k,z) with above normalization 
# The rescaling factor [-1/k^2] with k in 1/Mpc is here to match the CMBFAST/CAMB output convention
#
#
#    1:k (h/Mpc)              2:-T_cdm/k2              3:-T_b/k2                4:-T_g/k2                5:-T_ur/k2               6:-T_ncdm/k2             7:-T_tot/k2          
       2.113871688530e-07       2.274044510259e+06       2.274044510253e+06       3.032059282465e+06       3.032059281497e+06       2.286279255414e+06       2.276160186200e+06 
       2.661206785963e-07       2.274044509868e+06       2.274044509858e+06       3.032059244191e+06       3.032059242657e+06       2.286279251161e+06       2.276160185691e+06 
       3.350260848888e-07       2.274044509249e+06       2.274044509233e+06       3.032059183531e+06       3.032059181100e+06       2.286279244420e+06       2.276160184883e+06 
       4.217728518804e-07       2.274044508267e+06       2.274044508242e+06       3.032059087391e+06       3.032059083538e+06       2.286279233737e+06       2.276160183602e+06 
       5.309805612372e-07       2.274044506711e+06       2.274044506672e+06       3.032058935019e+06       3.032058928914e+06       2.286279216805e+06       2.276160181572e+06 
       6.684649217102e-07       2.274044504245e+06       2.274044504182e+06       3.032058693527e+06       3.032058683850e+06       2.286279189969e+06       2.276160178356e+06 
       8.415474768340e-07       2.274044500336e+06       2.274044500238e+06       3.032058310787e+06       3.032058295449e+06       2.286279147437e+06       2.276160173257e+06 
       1.059445503818e-06       2.274044494141e+06       2.274044493985e+06       3.032057704185e+06       3.032057679877e+06       2.286279080029e+06       2.276160165177e+06 
       1.333762867167e-06       2.274044484324e+06       2.274044484076e+06       3.032056742786e+06       3.032056704260e+06       2.286278973194e+06       2.276160152371e+06 
       1.679107966784e-06       2.274044468763e+06       2.274044468371e+06       3.032055219071e+06       3.032055158013e+06       2.286278803873e+06       2.276160132075e+06 
       2.113871688530e-06       2.274044444102e+06       2.274044443480e+06       3.032052804148e+06       3.032052707377e+06       2.286278535516e+06       2.276160099908e+06 
       2.661206785963e-06       2.274044405016e+06       2.274044404031e+06       3.032048976757e+06       3.032048823385e+06       2.286278110200e+06       2.276160048926e+06 
       3.350260848888e-06       2.274044343070e+06       2.274044341508e+06       3.032042910759e+06       3.032042667681e+06       2.286277436119e+06       2.276159968125e+06 
       4.217728518804e-06       2.274044244891e+06       2.274044242417e+06       3.032033296824e+06       3.032032911573e+06       2.286276367774e+06       2.276159840065e+06 
       5.309805612372e-06       2.274044089289e+06       2.274044085367e+06       3.032018059822e+06       3.032017449244e+06       2.286274674563e+06       2.276159637103e+06 
       6.684649217102e-06       2.274043842677e+06       2.274043836460e+06       3.031993910946e+06       3.031992943254e+06       2.286271991009e+06       2.276159315431e+06 
       8.415474768340e-06       2.274043451822e+06       2.274043441970e+06       3.031955637922e+06       3.031954104257e+06       2.286267737877e+06       2.276158805616e+06 
       1.059445503818e-05       2.274042832362e+06       2.274042816748e+06       3.031894980185e+06       3.031892549546e+06       2.286260997148e+06       2.276157997620e+06 
       1.333762867167e-05       2.274041850589e+06       2.274041825841e+06       3.031798846454e+06       3.031794994294e+06       2.286250313895e+06       2.276156717042e+06 
       1.679107966784e-05       2.274040294593e+06       2.274040255372e+06       3.031646490547e+06       3.031640385645e+06       2.286233382284e+06       2.276154687492e+06 
       2.113871688530e-05       2.274037828535e+06       2.274037766374e+06       3.031405037245e+06       3.031395362534e+06       2.286206548003e+06       2.276151470941e+06 
       2.661206785963e-05       2.274033920167e+06       2.274033821650e+06       3.031022396068e+06       3.031007064958e+06       2.286164019825e+06       2.276146373228e+06 
       3.350260848888e-05       2.274027725999e+06       2.274027569865e+06       3.030416042387e+06       3.030391749929e+06       2.286096620449e+06       2.276138294339e+06 
       4.217728518804e-05       2.274017909348e+06       2.274017661908e+06       3.029455266908e+06       3.029416780301e+06       2.285989807784e+06       2.276125491275e+06 
       5.309805612372e-05       2.274002352125e+06       2.274001959993e+06       3.027933118827e+06       3.027872157683e+06       2.285820541581e+06       2.276105202575e+06 
       6.684649217102e-05       2.273977698399e+06       2.273977076997e+06       3.025522129032e+06       3.025425602549e+06       2.285552324119e+06       2.276073054158e+06 
       8.415474768340e-05       2.273938631934e+06       2.273937647295e+06       3.021704613338e+06       3.021551856068e+06       2.285127357140e+06       2.276022119940e+06 
       1.059445503818e-04       2.273876733480e+06       2.273875173475e+06       3.015663406186e+06       3.015421871277e+06       2.284454153892e+06       2.275941438788e+06 
       1.333762867167e-04       2.273778675520e+06       2.273776204442e+06       3.006111676184e+06       3.005730295004e+06       2.283388012010e+06       2.275813678523e+06 
       1.679107966784e-04       2.273623375728e+06       2.273619462750e+06       2.991030665855e+06       2.990429784967e+06       2.281700331880e+06       2.275611469749e+06 
       2.113871688530e-04       2.273377521976e+06       2.273371328869e+06       2.967272591601e+06       2.966329165220e+06       2.279030656880e+06       2.275291685481e+06 
       2.661206785963e-04       2.272988570955e+06       2.272978776869e+06       2.929977122675e+06       2.928504042658e+06       2.274812327744e+06       2.274786598461e+06 
       3.350260848888e-04       2.272373877891e+06       2.272358408330e+06       2.871758694312e+06       2.869478791934e+06       2.268158793203e+06       2.273990416893e+06 
       4.217728518804e-04       2.271404026684e+06       2.271379640100e+06       2.781688389558e+06       2.778209179003e+06       2.257693655645e+06       2.272739284522e+06 
       5.309805612372e-04       2.269877774761e+06       2.269839445290e+06       2.644312965765e+06       2.639122727197e+06       2.241306346186e+06       2.270782780954e+06 
       6.684649217102e-04       2.267485625152e+06       2.267425649960e+06       2.439517792228e+06       2.432055439463e+06       2.215825190636e+06       2.267746152244e+06 
       8.415474768340e-04       2.263759778295e+06       2.263666542371e+06       2.145242469262e+06       2.135147507808e+06       2.176640760106e+06       2.263086694516e+06 
       1.059445503818e-03       2.258012050822e+06       2.257868396995e+06       1.746967371551e+06       1.734655566374e+06       2.117426950280e+06       2.256057155402e+06 
       1.333762867167e-03       2.249271446194e+06       2.249052523582e+06       1.258828156884e+06       1.246370038242e+06       2.030361793748e+06       2.245702373175e+06 
       1.679107966784e-03       2.236251243526e+06       2.235921133746e+06       7.537314441697e+05       7.451440509240e+05       1.907675702925e+06       2.230913913247e+06 
       2.113871688530e-03       2.217391294898e+06       2.216895831249e+06       3.686594408259e+05       3.670705140233e+05       1.745661147735e+06       2.210498291410e+06 
       2.661206785963e-03       2.190991945262e+06       2.190242609043e+06       2.080914231445e+05       2.091138107412e+05       1.551140758308e+06       2.183065859182e+06 
       3.350260848888e-03       2.155341031791e+06       2.154189751267e+06       1.708738484640e+05       1.659935624816e+05       1.345270740801e+06       2.146705731861e+06 
       4.217728518804e-03       2.108668262313e+06       2.106888344350e+06       9.040804112488e+04       8.737071521630e+04       1.152626050471e+06       2.099298067908e+06 
       5.309805612372e-03       2.049082545037e+06       2.046339433972e+06       6.250748047499e+04       5.989966608247e+04       9.766724319398e+05       2.039213951974e+06 
       6.684649217102e-03       1.974678328677e+06       1.970459497197e+06       3.287515695897e+04       3.145180275698e+04       8.038032701011e+05       1.964335204019e+06 
       8.415474768340e-03       1.883501746384e+06       1.877061712646e+06       2.239553173346e+04       1.964637046456e+04       6.364390151805e+05       1.872747708869e+06 
       1.059445503818e-02       1.773621040025e+06       1.763901977082e+06       1.376179914598e+04       1.154789255848e+04       4.889541732319e+05       1.762494086343e+06 
       1.333762867167e-02       1.643194487768e+06       1.628789247603e+06       7.952545670219e+03       7.071367373969e+03       3.586390671705e+05       1.631681916216e+06 
       1.679107966781e-02       1.490759254755e+06       1.470004710615e+06       5.322880337158e+03       3.910103729244e+03       2.526354914425e+05       1.478843506250e+06 
       2.113871670917e-02       1.316303189029e+06       1.287706360680e+06       2.987906961958e+03       2.155785023589e+03       1.691714353233e+05       1.303981261691e+06 
       2.661193529410e-02       1.123770640437e+06       1.087078288514e+06       1.541150198717e+03       1.266036680313e+03       1.072221595307e+05       1.111203245749e+06 
       3.348442896176e-02       9.255997429713e+05       8.836456579191e+05       8.504901836051e+02       6.055926736195e+02       6.416793679502e+04       9.133356691330e+05 
       4.157732672947e-02       7.532785462060e+05       7.130953274979e+05       4.432454432903e+02       3.259709837029e+02       3.802654079780e+04       7.423063274911e+05 
       4.838882049716e-02       6.525311639835e+05       6.189038705652e+05       2.981546432177e+02       2.051147866045e+02       2.615887285095e+04       6.431842353092e+05 
       5.333080081211e-02       5.985467079901e+05       5.709463072508e+05       2.001747194271e+02       1.691227684825e+02       2.062402495574e+04       5.904640122292e+05 
       5.740801476810e-02       5.624480014742e+05       5.397352964425e+05       1.711674356366e+02       1.370584112781e+02       1.726134988309e+04       5.553451411159e+05 
       6.104925253706e-02       5.345393443425e+05       5.156729713542e+05       1.343929410403e+02       1.089347707012e+02       1.487028566605e+04       5.282052537184e+05 
       6.444578911592e-02       5.108419001791e+05       4.948826685117e+05       1.179299928832e+02       9.192118878441e+01       1.302822307021e+04       5.051056152003e+05 
       6.769891516270e-02       4.893766733587e+05       4.754741609080e+05       1.079298213509e+02       8.556829320938e+01       1.151340114409e+04       4.840929682918e+05 
       7.086938720988e-02       4.690575508789e+05       4.564503264260e+05       7.306138518516e+01       6.866646085575e+01       1.022876906468e+04       4.641016075487e+05 
       7.399712481949e-02       4.492794622837e+05       4.373045365217e+05       9.021015509032e+01       6.601784902887e+01       9.134444112819e+03       4.445456779830e+05 
       7.711026791128e-02       4.297367711894e+05       4.178434158791e+05       6.365237214947e+01       5.304087672489e+01       8.149928059365e+03       4.251384483421e+05 
       8.022981465599e-02       4.103301649501e+05       3.980943633021e+05       6.076476378117e+01       4.888922670836e+01       7.271721797394e+03       4.058010486174e+05 
       8.337219929640e-02       3.911101569572e+05       3.782466268699e+05       5.352245779011e+01       4.316426809353e+01       6.501859341366e+03       3.866051483917e+05 
       8.655081991654e-02       3.722354214225e+05       3.586044927137e+05       4.723412406734e+01       3.809378272055e+01       5.794661472345e+03       3.677308397188e+05 
       8.977699164816e-02       3.539361191032e+05       3.395432152207e+05       4.171127657622e+01       3.364046819961e+01       5.176960281341e+03       3.494294171492e+05 
       9.306056683704e-02       3.364777411966e+05       3.214635946542e+05       3.687829003272e+01       2.974328400770e+01       4.620757377910e+03       3.319855528261e+05 
       9.641035269606e-02       3.201241674814e+05       3.047446981630e+05       3.266993464178e+01       2.634960720783e+01       4.133795654675e+03       3.156793281202e+05 
       9.983440071519e-02       3.051006787990e+05       2.896964417442e+05       2.902483823432e+01       2.340995036814e+01       3.711121465133e+03       3.007476850006e+05 
       1.033402119681e-01       2.915592375029e+05       2.765156406196e+05       2.588164703653e+01       2.087486116865e+01       3.336024640491e+03       2.873485019561e+05 
       1.069348855485e-01       2.795495674539e+05       2.652505585824e+05       2.317735418608e+01       1.869357565417e+01       3.011493099552e+03       2.755309652363e+05 
       1.106252274985e-01       2.690002937907e+05       2.557797689305e+05       2.084735204606e+01       1.681404950402e+01       2.734608359530e+03       2.652163811051e+05 
       1.144178316307e-01       2.597144592507e+05       2.478110074279e+05       1.882695128638e+01       1.518417575043e+01       2.492116452032e+03       2.561942225869e+05 
       1.183191399418e-01       2.513828859635e+05       2.409043406216e+05       1.705397064766e+01       1.375386781628e+01       2.271013618078e+03       2.481369667322e+05 
       1.223354879560e-01       2.436169434858e+05       2.345211963323e+05       1.547191507034e+01       1.247761663319e+01       2.074440544596e+03       2.406352345500e+05 
       1.264731388080e-01       2.359992638124e+05       2.280965860961e+05       1.403316590110e+01       1.131705408320e+01       1.897960632659e+03       2.332514275726e+05 
       1.307383088689e-01       2.281470617938e+05       2.211265765259e+05       1.270162640593e+01       1.024308337830e+01       1.728822263656e+03       2.255863846438e+05 
       1.351371870486e-01       2.197786098188e+05       2.132576295767e+05       1.145424049966e+01       9.237104946865e+00       1.571763661074e+03       2.173490724022e+05 
       1.396759494632e-01       2.107700077157e+05       2.043601332698e+05       1.028090473088e+01       8.290944647448e+00       1.418566291218e+03       2.084154754823e+05 
       1.443607708613e-01       2.011879265361e+05       1.945669637000e+05       9.182628502381e+00       7.405378110248e+00       1.276157923688e+03       1.988621367147e+05 
       1.491978340066e-01       1.912858199795e+05       1.842609753558e+05       8.168019122922e+00       6.587301461317e+00       1.140923008997e+03       1.889609430244e+05 
       1.541933380895e-01       1.814569644325e+05       1.740038593780e+05       7.248650008046e+00       5.846006867919e+00       1.020195861263e+03       1.791287960913e+05 
       1.593535071576e-01       1.721475750062e+05       1.644125831327e+05       6.434120405117e+00       5.189204984986e+00       9.110823032849e+02       1.698355180827e+05 
       1.646845995079e-01       1.637455212772e+05       1.560062384441e+05       5.727886053224e+00       4.619669501501e+00       8.157894280721e+02       1.614868459601e+05 
       1.701929189492e-01       1.564716384386e+05       1.490610863360e+05       5.124842102704e+00       4.133289089693e+00       7.343419539302e+02       1.543107892143e+05 
       1.758848288251e-01       1.503068011143e+05       1.435187971411e+05       4.611341793758e+00       3.719079488012e+00       6.643137237190e+02       1.482822511886e+05 
       1.817667696725e-01       1.449843586312e+05       1.389865349470e+05       4.167722939503e+00       3.361214096972e+00       6.036372989725e+02       1.431167113058e+05 
       1.878452813852e-01       1.400618168412e+05       1.348448132141e+05       3.772680394871e+00       3.042540760692e+00       5.490368672411e+02       1.383470524241e+05 
       1.941270307443e-01       1.350596509956e+05       1.304430752134e+05       3.408181817340e+00       2.748537413996e+00       4.986141883354e+02       1.334702970379e+05 
       2.006188451821e-01       1.296262542295e+05       1.253243178930e+05       3.063319322258e+00       2.470412674483e+00       4.503447363005e+02       1.281207459401e+05 
       2.073277536588e-01       1.236682685775e+05       1.193952478014e+05       2.735735129840e+00       2.206255444904e+00       4.042232542856e+02       1.222056556814e+05 
       2.142610355664e-01       1.173874755287e+05       1.129640373386e+05       2.430057360394e+00       1.959778501124e+00       3.605747877580e+02       1.159420183070e+05 
       2.214262786303e-01       1.111955570590e+05       1.066114581707e+05       2.153925920504e+00       1.737122174681e+00       3.210384322754e+02       1.097651053413e+05 
       2.288314468800e-01       1.055302653840e+05       1.009332433883e+05       1.913221921448e+00       1.543015522854e+00       2.865052375573e+02       1.041343624159e+05 
       2.364849599101e-01       1.006498972530e+05       9.626240626208e+04       1.708547137629e+00       1.377941995102e+00       2.570558936553e+02       9.931801287743e+04 
       2.443957848719e-01       9.650782179297e+04       9.250976081597e+04       1.534506968428e+00       1.237560224963e+00       2.318256233406e+02       9.526311837430e+04 
       2.525735429460e-01       9.278190441326e+04       8.921917835610e+04       1.382038412118e+00       1.114575397358e+00       2.096887901833e+02       9.162882501049e+04 
       2.610286324711e-01       8.905628750258e+04       8.582581891075e+04       1.242470023818e+00       1.002005506524e+00       1.891356319183e+02       8.797883457261e+04 
       2.697723714746e-01       8.506048576076e+04       8.198127715797e+04       1.111048852943e+00       8.960202516635e-01       1.697382932753e+02       8.403231547200e+04 
       2.788171631175e-01       8.082119685798e+04       7.774840353633e+04       9.879635083012e-01       7.967659855906e-01       1.516772602487e+02       7.982140546952e+04 
       2.881766885710e-01       7.662192155469e+04       7.353027781092e+04       8.764078979515e-01       7.068091467616e-01       1.349190925994e+02       7.564633266931e+04 
       2.978661331832e-01       7.278803682189e+04       6.976838953217e+04       7.791137549306e-01       6.283464344503e-01       1.204215606233e+02       7.184839581116e+04 
       3.079024535571e-01       6.944609219800e+04       6.661957632940e+04       6.957742398031e-01       5.611306208991e-01       1.078919600016e+02       6.855802575132e+04 
       3.183046955236e-01       6.644135717684e+04       6.385901549817e+04       6.230804066262e-01       5.024984385417e-01       9.693373418812e+01       6.561061143862e+04 
       3.290943761514e-01       6.348472558994e+04       6.109375361084e+04       5.570746911618e-01       4.492635263732e-01       8.693990766271e+01       6.270279542603e+04 
       3.402959472302e-01       6.040708652336e+04       5.810904733794e+04       4.957099482880e-01       3.997760141455e-01       7.761439603042e+01       5.965947684576e+04 
       3.519373635464e-01       5.729128753504e+04       5.503443841086e+04       4.394446255015e-01       3.544025619977e-01       6.905050199887e+01       5.657021585852e+04 
       3.640507874628e-01       5.435467749314e+04       5.216987767129e+04       3.895802090336e-01       3.141892907563e-01       6.141669181665e+01       5.366377753655e+04 
