# Rescaled matter transfer functions [-T_i(k)/k^2] for adiabatic (AD) mode (normalized to initial curvature=1) at redshift z=0.95
# for k=2.11387e-07 to 211.604 h/Mpc,
# number of wavenumbers equal to 152
# T_i   stands for (delta rho_i/rho_i)(k,z) with above normalization 
# The rescaling factor [-1/k^2] with k in 1/Mpc is here to match the CMBFAST/CAMB output convention
#
#
#    1:k (h/Mpc)              2:-T_cdm/k2              3:-T_b/k2                4:-T_g/k2                5:-T_ur/k2               6:-T_ncdm/k2             7:-T_tot/k2          
       2.113871688530e-07       1.218755828677e+07       1.218755828658e+07       1.625007579517e+07       1.625007572204e+07       1.218661198949e+07       1.218954385687e+07 
       2.661206785963e-07       1.218755828348e+07       1.218755828318e+07       1.625007466748e+07       1.625007455157e+07       1.218661197610e+07       1.218954385297e+07 
       3.350260848888e-07       1.218755827827e+07       1.218755827780e+07       1.625007288022e+07       1.625007269652e+07       1.218661195488e+07       1.218954384679e+07 
       4.217728518804e-07       1.218755827002e+07       1.218755826927e+07       1.625007004761e+07       1.625006975646e+07       1.218661192125e+07       1.218954383699e+07 
       5.309805612372e-07       1.218755825693e+07       1.218755825574e+07       1.625006555821e+07       1.625006509677e+07       1.218661186794e+07       1.218954382147e+07 
       6.684649217102e-07       1.218755823619e+07       1.218755823430e+07       1.625005844301e+07       1.625005771167e+07       1.218661178347e+07       1.218954379687e+07 
       8.415474768340e-07       1.218755820331e+07       1.218755820033e+07       1.625004716617e+07       1.625004600709e+07       1.218661164958e+07       1.218954375787e+07 
       1.059445503818e-06       1.218755815121e+07       1.218755814648e+07       1.625002929361e+07       1.625002745658e+07       1.218661143737e+07       1.218954369608e+07 
       1.333762867167e-06       1.218755806864e+07       1.218755806114e+07       1.625000096754e+07       1.624999805605e+07       1.218661110106e+07       1.218954359813e+07 
       1.679107966784e-06       1.218755793777e+07       1.218755792589e+07       1.624995607385e+07       1.624995145946e+07       1.218661056803e+07       1.218954344290e+07 
       2.113871688530e-06       1.218755773035e+07       1.218755771152e+07       1.624988492238e+07       1.624987760909e+07       1.218660972325e+07       1.218954319688e+07 
       2.661206785963e-06       1.218755740162e+07       1.218755737177e+07       1.624977215551e+07       1.624976056479e+07       1.218660838435e+07       1.218954280696e+07 
       3.350260848888e-06       1.218755688062e+07       1.218755683331e+07       1.624959343360e+07       1.624957506370e+07       1.218660626234e+07       1.218954218897e+07 
       4.217728518804e-06       1.218755605489e+07       1.218755597991e+07       1.624931018228e+07       1.624928106836e+07       1.218660289919e+07       1.218954120954e+07 
       5.309805612372e-06       1.218755474620e+07       1.218755462737e+07       1.624886126882e+07       1.624881512736e+07       1.218659756896e+07       1.218953965725e+07 
       6.684649217102e-06       1.218755267207e+07       1.218755248374e+07       1.624814981311e+07       1.624807668634e+07       1.218658912115e+07       1.218953719707e+07 
       8.415474768340e-06       1.218754938482e+07       1.218754908635e+07       1.624702229254e+07       1.624690640073e+07       1.218657573233e+07       1.218953329799e+07 
       1.059445503818e-05       1.218754417494e+07       1.218754370191e+07       1.624523544542e+07       1.624505178510e+07       1.218655451265e+07       1.218952711851e+07 
       1.333762867167e-05       1.218753591801e+07       1.218753516832e+07       1.624240386672e+07       1.624211282452e+07       1.218652088213e+07       1.218951732504e+07 
       1.679107966784e-05       1.218752283204e+07       1.218752164394e+07       1.623791707919e+07       1.623745590832e+07       1.218646758239e+07       1.218950180433e+07 
       2.113871688530e-05       1.218750209316e+07       1.218750021033e+07       1.623080841670e+07       1.623007776105e+07       1.218638311060e+07       1.218947720788e+07 
       2.661206785963e-05       1.218746922675e+07       1.218746624311e+07       1.621954801357e+07       1.621839063246e+07       1.218624923835e+07       1.218943823070e+07 
       3.350260848888e-05       1.218741714323e+07       1.218741241562e+07       1.620171670908e+07       1.619988396526e+07       1.218603708152e+07       1.218937647002e+07 
       4.217728518804e-05       1.218733461210e+07       1.218732712218e+07       1.617349421884e+07       1.617059348449e+07       1.218570087679e+07       1.218927862106e+07 
       5.309805612372e-05       1.218720384844e+07       1.218719198481e+07       1.612886044791e+07       1.612427304714e+07       1.218516813157e+07       1.218912362902e+07 
       6.684649217102e-05       1.218699670076e+07       1.218697791599e+07       1.605836088678e+07       1.605111528506e+07       1.218432404685e+07       1.218887820411e+07 
       8.415474768340e-05       1.218666864151e+07       1.218663891436e+07       1.594722760142e+07       1.593580648828e+07       1.218298691410e+07       1.218848978517e+07 
       1.059445503818e-04       1.218614932333e+07       1.218610232096e+07       1.577259346823e+07       1.575464795023e+07       1.218086933552e+07       1.218787556631e+07 
       1.333762867167e-04       1.218532781251e+07       1.218525359894e+07       1.549954848531e+07       1.547149399426e+07       1.217751729538e+07       1.218690554590e+07 
       1.679107966784e-04       1.218402968272e+07       1.218391276142e+07       1.507602874497e+07       1.503252261765e+07       1.217221492337e+07       1.218537673776e+07 
       2.113871688530e-04       1.218198193022e+07       1.218179836137e+07       1.442740410074e+07       1.436079566701e+07       1.216383684969e+07       1.218297488644e+07 
       2.661206785963e-04       1.217876031769e+07       1.217847367964e+07       1.345399279698e+07       1.335408062670e+07       1.215062231552e+07       1.217921984292e+07 
       3.350260848888e-04       1.217371289534e+07       1.217326913483e+07       1.203999246143e+07       1.189496291941e+07       1.212983690003e+07       1.217339253213e+07 
       4.217728518804e-04       1.216585469432e+07       1.216517680308e+07       1.009139965593e+07       9.891742299619e+06       1.209728355148e+07       1.216444727140e+07 
       5.309805612372e-04       1.215373496547e+07       1.215272057566e+07       7.628029230547e+06       7.375962213860e+06       1.204663713960e+07       1.215092345604e+07 
       6.684649217102e-04       1.213529291023e+07       1.213382190307e+07       4.931877073377e+06       4.656453920952e+06       1.196863327460e+07       1.213087396034e+07 
       8.415474768340e-04       1.210773559608e+07       1.210569932103e+07       2.630501421315e+06       2.396349934176e+06       1.185028965154e+07       1.210178386743e+07 
       1.059445503818e-03       1.206746134487e+07       1.206482193807e+07       1.367417915933e+06       1.243778035305e+06       1.167463145420e+07       1.206033029318e+07 
       1.333762867167e-03       1.200996402837e+07       1.200682370296e+07       9.587623864938e+05       9.394057955171e+05       1.142184057711e+07       1.200187236908e+07 
       1.679107966784e-03       1.192957894185e+07       1.192618121130e+07       5.536422428367e+05       5.544131328196e+05       1.107316035241e+07       1.192029269830e+07 
       2.113871688530e-03       1.181921656587e+07       1.181578470174e+07       3.392070860190e+05       3.265444688024e+05       1.061820642653e+07       1.180858931018e+07 
       2.661206785963e-03       1.167048353153e+07       1.166695166521e+07       1.993888192588e+05       1.906438309497e+05       1.006141441113e+07       1.165832678918e+07 
       3.350260848888e-03       1.147402771546e+07       1.147005127496e+07       1.283934470874e+05       1.257009710402e+05       9.415354591728e+06       1.146019062736e+07 
       4.217728518804e-03       1.121997558112e+07       1.121535799287e+07       7.825766929783e+04       7.549907978963e+04       8.680221163562e+06       1.120434785866e+07 
       5.309805612372e-03       1.089805719207e+07       1.089251432725e+07       4.391279324394e+04       4.217270005890e+04       7.846368072028e+06       1.088052091154e+07 
       6.684649217102e-03       1.049765988274e+07       1.049062736495e+07       2.891756710014e+04       2.764641283001e+04       6.918867580807e+06       1.047811858429e+07 
       8.415474768340e-03       1.000814292910e+07       9.998862406352e+06       1.697445031379e+04       1.828929017270e+04       5.932431012175e+06       9.986636428340e+06 
       1.059445503818e-02       9.419155378303e+06       9.406539392946e+06       9.036867844731e+03       1.036455117228e+04       4.925248958726e+06       9.395857775126e+06 
       1.333762867167e-02       8.720648921476e+06       8.703238603637e+06       5.227533327674e+03       6.233771338228e+03       3.940071958506e+06       8.695878385639e+06 
       1.679107966781e-02       7.904757995042e+06       7.880831138233e+06       3.027603214682e+03       3.562098918699e+03       3.018533309516e+06       7.878978617204e+06 
       2.113871670917e-02       6.971523663835e+06       6.939546070858e+06       1.708428284170e+03       1.988742413986e+03       2.199177059573e+06       6.945371785656e+06 
       2.661193529410e-02       5.942688444123e+06       5.902447733899e+06       9.171290392716e+02       1.099429871898e+03       1.513453404978e+06       5.917031377722e+06 
       3.348442896176e-02       4.886276823746e+06       4.840825080661e+06       4.692191556486e+02       4.571823191577e+02       9.822882495202e+05       4.862281056813e+06 
       4.157732672947e-02       3.972159989032e+06       3.928937349963e+06       2.472860077104e+02       2.411405144182e+02       6.260668481957e+05       3.951035145700e+06 
       4.838882049716e-02       3.441475572290e+06       3.405410733746e+06       1.581501562536e+02       1.542190810827e+02       4.522384657334e+05       3.423052525429e+06 
       5.333080081211e-02       3.158806435254e+06       3.129228292615e+06       1.195101220424e+02       1.165391501094e+02       3.676533921333e+05       3.142268367423e+06 
       5.740801476810e-02       2.970369522810e+06       2.946022457689e+06       9.699445038345e+01       9.458299879291e+01       3.145867691099e+05       2.955241502953e+06 
       6.104925253706e-02       2.824737831739e+06       2.804492654563e+06       8.157198935019e+01       7.954382768567e+01       2.760323589241e+05       2.810717898379e+06 
       6.444578911592e-02       2.700849521479e+06       2.683695529678e+06       6.999497300893e+01       6.825455816113e+01       2.456465418384e+05       2.687719244495e+06 
       6.769891516270e-02       2.588254397852e+06       2.573280788762e+06       6.078777731832e+01       5.927622634482e+01       2.202453852961e+05       2.575843053550e+06 
       7.086938720988e-02       2.481243762785e+06       2.467637973928e+06       5.317720469021e+01       5.185484588083e+01       1.983396156684e+05       2.469414413350e+06 
       7.399712481949e-02       2.376669665123e+06       2.363726395923e+06       4.671926528151e+01       4.555745676394e+01       1.789297603270e+05       2.365311600099e+06 
       7.711026791128e-02       2.272983125312e+06       2.260118348282e+06       4.114296888738e+01       4.011980174249e+01       1.615391651670e+05       2.262009253106e+06 
       8.022981465599e-02       2.169740266522e+06       2.156506102806e+06       3.627537554280e+01       3.537323643495e+01       1.457608427804e+05       2.159085033722e+06 
       8.337219929640e-02       2.067300574861e+06       2.053397626037e+06       3.200195629451e+01       3.120607701391e+01       1.314520177307e+05       2.056919484793e+06 
       8.655081991654e-02       1.966602427252e+06       1.951886564636e+06       2.824365022830e+01       2.754122614030e+01       1.184707185191e+05       1.956470661134e+06 
       8.977699164816e-02       1.868963300011e+06       1.853444783602e+06       2.494278389773e+01       2.432244265377e+01       1.067291825414e+05       1.859074184935e+06 
       9.306056683704e-02       1.775881767270e+06       1.759714365354e+06       2.205397610526e+01       2.150547261424e+01       9.618994316705e+04       1.766244507760e+06 
       9.641035269606e-02       1.688834597353e+06       1.672293814197e+06       1.953812460824e+01       1.905218519498e+01       8.680165794485e+04       1.679470927969e+06 
       9.983440071519e-02       1.609073489905e+06       1.592523755824e+06       1.735851889120e+01       1.692678213044e+01       7.850401116062e+04       1.600013484844e+06 
       1.033402119681e-01       1.537434690829e+06       1.521286828019e+06       1.547853411160e+01       1.509354897021e+01       7.121801815388e+04       1.528711826304e+06 
       1.069348855485e-01       1.474181150390e+06       1.458843017829e+06       1.386060083154e+01       1.351585041613e+01       6.484243167247e+04       1.465826957161e+06 
       1.106252274985e-01       1.418900878294e+06       1.404725742306e+06       1.246623429551e+01       1.215615883414e+01       5.926272551642e+04       1.410939701885e+06 
       1.144178316307e-01       1.370485364975e+06       1.357723979908e+06       1.125692303115e+01       1.097692066402e+01       5.436102384772e+04       1.362929831000e+06 
       1.183191399418e-01       1.327207008409e+06       1.315970281869e+06       1.019564809871e+01       9.942037780640e+00       4.998952628357e+04       1.320054709744e+06 
       1.223354879560e-01       1.286903770529e+06       1.277142849072e+06       9.248762868563e+00       9.018700575259e+00       4.602383843661e+04       1.280136085720e+06 
       1.264731388080e-01       1.247262588829e+06       1.238771886389e+06       8.387888898565e+00       8.179236514779e+00       4.234669562007e+04       1.240845815932e+06 
       1.307383088689e-01       1.206171439876e+06       1.198617341203e+06       7.591486526326e+00       7.402641699126e+00       3.886971722249e+04       1.200060523242e+06 
       1.351371870486e-01       1.162087323691e+06       1.155061102028e+06       6.845750173729e+00       6.675453828055e+00       3.553588851118e+04       1.156231807627e+06 
       1.396759494632e-01       1.114348663484e+06       1.107437026807e+06       6.144571026103e+00       5.991715834206e+00       3.232566250520e+04       1.108700095698e+06 
       1.443607708613e-01       1.063352984808e+06       1.056214541088e+06       5.488442136690e+00       5.351908220776e+00       2.925166015258e+04       1.057872472712e+06 
       1.491978340066e-01       1.010531039196e+06       1.002963189852e+06       4.882385759076e+00       4.760928001242e+00       2.635537208897e+04       1.005195413630e+06 
       1.541933380895e-01       9.580815840735e+05       9.500614376707e+05       4.333202092919e+00       4.225405914099e+00       2.368433112350e+04       9.528865528867e+05 
       1.593535071576e-01       9.084859676972e+05       9.001720907626e+05       3.846544102267e+00       3.750854058449e+00       2.128020397643e+04       9.034451760873e+05 
       1.646845995079e-01       8.638897664182e+05       8.555794156188e+05       3.424437902288e+00       3.339248011271e+00       1.917019789988e+04       8.590295030126e+05 
       1.701929189492e-01       8.255018873864e+05       8.175498719603e+05       3.063844107356e+00       2.987623967027e+00       1.735097874658e+04       8.208522913445e+05 
       1.758848288251e-01       7.931950086280e+05       7.859128897611e+05       2.756661505763e+00       2.688082315095e+00       1.578845774739e+04       7.887798994364e+05 
       1.817667696725e-01       7.654704516183e+05       7.590343250110e+05       2.491217738672e+00       2.429241198373e+00       1.442510124914e+04       7.612986695224e+05 
       1.878452813852e-01       7.398625434636e+05       7.342596896051e+05       2.254858144956e+00       2.198760910280e+00       1.319794314560e+04       7.359237013236e+05 
       1.941270307443e-01       7.137129284040e+05       7.087490361136e+05       2.036859113543e+00       1.986184709393e+00       1.204723792789e+04       7.099793591648e+05 
       2.006188451821e-01       6.850855465496e+05       6.804553050078e+05       1.830715733588e+00       1.785169532235e+00       1.093898706866e+04       6.815203404058e+05 
       2.073277536588e-01       6.534847697935e+05       6.488844173995e+05       1.634992401509e+00       1.594315427556e+00       9.867097917539e+03       6.500533228313e+05 
       2.142610355664e-01       6.200518298400e+05       6.152920486307e+05       1.452401903766e+00       1.416267574844e+00       8.850651318369e+03       6.167326089444e+05 
       2.214262786303e-01       5.870835857435e+05       5.821554693767e+05       1.287453030199e+00       1.255422465201e+00       7.920218635471e+03       5.838735680923e+05 
       2.288314468800e-01       5.570080134349e+05       5.520703026943e+05       1.143622600970e+00       1.115170331091e+00       7.100816426224e+03       5.539201275210e+05 
       2.364849599101e-01       5.312455962956e+05       5.265353726903e+05       1.021264523040e+00       9.958562513647e-01       6.398306448040e+03       5.282989987102e+05 
       2.443957848719e-01       5.095208118407e+05       5.052285965517e+05       9.171789283775e-01       8.943600071136e-01       5.796936042944e+03       5.067285165957e+05 
       2.525735429460e-01       4.900353262690e+05       4.862083306835e+05       8.259871487599e-01       8.054368160314e-01       5.265447329518e+03       4.873955075437e+05 
       2.610286324711e-01       4.704833522508e+05       4.670104490690e+05       7.425368432604e-01       7.240625799562e-01       4.773003542685e+03       4.679791449185e+05 
       2.697723714746e-01       4.493776128722e+05       4.460657118543e+05       6.639948874496e-01       6.474746732615e-01       4.303113964783e+03       4.469856018817e+05 
       2.788171631175e-01       4.268836071219e+05       4.235791735320e+05       5.904584050702e-01       5.757677691096e-01       3.857001342616e+03       4.245858394278e+05 
       2.881766885710e-01       4.045850880281e+05       4.012623466862e+05       5.238109531556e-01       5.107785086218e-01       3.448335531099e+03       4.023768692454e+05 
       2.978661331832e-01       3.842858688910e+05       3.810422451361e+05       4.656677010546e-01       4.540818378548e-01       3.088853124279e+03       3.821741198827e+05 
       3.079024535571e-01       3.666777523849e+05       3.636420107762e+05       4.158456967198e-01       4.054993544048e-01       2.778733248564e+03       3.646713570209e+05 
       3.183046955236e-01       3.508932018289e+05       3.481188262262e+05       3.723814995568e-01       3.631164941485e-01       2.506223694317e+03       3.489929411255e+05 
       3.290943761514e-01       3.353290647558e+05       3.327590743278e+05       3.329241395754e-01       3.246408064454e-01       2.256484202672e+03       3.335252293607e+05 
       3.402959472302e-01       3.190575165385e+05       3.165870310238e+05       2.962530953304e-01       2.888821414316e-01       2.021833173164e+03       3.173368236271e+05 
       3.519373635464e-01       3.025491001250e+05       3.001235350939e+05       2.626340623209e-01       2.560995663812e-01       1.804431215051e+03       3.009041186694e+05 
       3.640507874628e-01       2.870120529718e+05       2.846647061155e+05       2.328353828000e-01       2.270422869304e-01       1.610277318709e+03       2.854439590713e+05 
