# Transfer functions T_i(k) for adiabatic (AD) mode (normalized to initial curvature=1) at redshift z=5
# for k=2.11387e-07 to 1060.53 h/Mpc,
# number of wavenumbers equal to 159
# t_i   stands for theta_i(k,z) with above normalization 
# t_tot stands for (sum_i [rho_i+p_i] theta_i)/(sum_i [rho_i+p_i]))(k,z)
#
#    1:k (h/Mpc)              2:t_g                    3:t_b                    4:t_cdm                  5:t_ur                   6:t_ncdm[0]              7:t_tot              
       2.113871688530e-07       2.573118124976e-11       2.573106310013e-11       2.573106303772e-11       2.573118832130e-11       2.573079985655e-11       2.573106230688e-11 
       2.661206785963e-07       4.078117204152e-11       4.078098671612e-11       4.078098661784e-11       4.078118315573e-11       4.078056946526e-11       4.078098545535e-11 
       3.350260848888e-07       6.463379716922e-11       6.463350818780e-11       6.463350803353e-11       6.463381455579e-11       6.463284679852e-11       6.463350618088e-11 
       4.217728518804e-07       1.024376535476e-10       1.024372071100e-10       1.024372068691e-10       1.024376805502e-10       1.024361586621e-10       1.024372039079e-10 
       5.309805612372e-07       1.623527101398e-10       1.623520320515e-10       1.623520316789e-10       1.623527515217e-10       1.623503698143e-10       1.623520269221e-10 
       6.684649217102e-07       2.573116319516e-10       2.573106302424e-10       2.573106296744e-10       2.573116940463e-10       2.573079944076e-10       2.573106219781e-10 
       8.415474768340e-07       4.078112685058e-10       4.078098655606e-10       4.078098647177e-10       4.078113580697e-10       4.078056845626e-10       4.078098521217e-10 
       1.059445503818e-06       6.463368352845e-10       6.463350776160e-10       6.463350764254e-10       6.463369548847e-10       6.463284423605e-10       6.463350554573e-10 
       1.333762867167e-06       1.024373667531e-09       1.024372057832e-09       1.024372056313e-09       1.024373800592e-09       1.024361519286e-09       1.024372020544e-09 
       1.679107966784e-06       1.623519907791e-09       1.623520289161e-09       1.623520287666e-09       1.623519978064e-09       1.623503531290e-09       1.623520224650e-09 
       2.113871688530e-06       2.573098213009e-09       2.573106216599e-09       2.573106216540e-09       2.573097969196e-09       2.573079516773e-09       2.573106100705e-09 
       2.661206785963e-06       4.078067175492e-09       4.078098434646e-09       4.078098440349e-09       4.078065897589e-09       4.078055766057e-09       4.078098216694e-09 
       3.350260848888e-06       6.463254037980e-09       6.463350221073e-09       6.463350244663e-09       6.463249774269e-09       6.463281711778e-09       6.463349789582e-09 
       4.217728518804e-06       1.024344959449e-08       1.024371919619e-08       1.024371927013e-08       1.024343721412e-08       1.024360839518e-08       1.024371829614e-08 
       5.309805612372e-06       1.623447781032e-08       1.623519938961e-08       1.623519959862e-08       1.623444406521e-08       1.623501820288e-08       1.623519742012e-08 
       6.684649217102e-06       2.572917053303e-08       2.573105339315e-08       2.573105395507e-08       2.572908157325e-08       2.573075221691e-08       2.573104890771e-08 
       8.415474768340e-06       4.077612139040e-08       4.078096232518e-08       4.078096379512e-08       4.077589128784e-08       4.078044979074e-08       4.078095179017e-08 
       1.059445503818e-05       6.462111066319e-08       6.463344688708e-08       6.463345067200e-08       6.462052215292e-08       6.463254615192e-08       6.463342158468e-08 
       1.333762867167e-05       1.024057872207e-07       1.024370530182e-07       1.024370626720e-07       1.024042923351e-07       1.024354033469e-07       1.024369913021e-07 
       1.679107966784e-05       1.622726705532e-07       1.623516449445e-07       1.623516694253e-07       1.622688894498e-07       1.623484725106e-07       1.623514928442e-07 
       2.113871688530e-05       2.571105996347e-07       2.573096573281e-07       2.573097191859e-07       2.571010612849e-07       2.573032280267e-07       2.573092799247e-07 
       2.661206785963e-05       4.073063802833e-07       4.078074215141e-07       4.078075774599e-07       4.072823599227e-07       4.077937119760e-07       4.078064809942e-07 
       3.350260848888e-05       6.450689464858e-07       6.463289388517e-07       6.463293314230e-07       6.450085260968e-07       6.462983700385e-07       6.463265885937e-07 
       4.217728518804e-05       1.021190199906e-06       1.024356639459e-06       1.024357626734e-06       1.021038348542e-06       1.024285986710e-06       1.024350756729e-06 
       5.309805612372e-05       1.615528636450e-06       1.623481559383e-06       1.623484040480e-06       1.615147276207e-06       1.623313817046e-06       1.623466821606e-06 
       6.684649217102e-05       2.553045972560e-06       2.573008947035e-06       2.573015178370e-06       2.552088963618e-06       2.572603056186e-06       2.572972012742e-06 
       8.415474768340e-05       4.027781395934e-06       4.077854161380e-06       4.077869801369e-06       4.025382176929e-06       4.076859265329e-06       4.077761615524e-06 
       1.059445503818e-04       6.337272214836e-06       6.462736852633e-06       6.462776075180e-06       6.331265810435e-06       6.460277478761e-06       6.462505122458e-06 
       1.333762867167e-04       9.928308052657e-06       1.024217933820e-05       1.024227758724e-05       9.913303061526e-06       1.023606702278e-05       1.024159989564e-05 
       1.679107966784e-04       1.544806676392e-05       1.623133487811e-05       1.623158054890e-05       1.541070571993e-05       1.621609474202e-05       1.622988938832e-05 
       2.113871688530e-04       2.377427204146e-05       2.572135977411e-05       2.572197238717e-05       2.368173005460e-05       2.568329647913e-05       2.571776765091e-05 
       2.661206785963e-04       3.594603584239e-05       4.075666689985e-05       4.075818795637e-05       3.571869458204e-05       4.066155519529e-05       4.074779502837e-05 
       3.350260848888e-04       5.280159020015e-05       6.457263220045e-05       6.457638321902e-05       5.225034944542e-05       6.433511912876e-05       6.455093360475e-05 
       4.217728518804e-04       7.392020494732e-05       1.022851290293e-04       1.022942804552e-04       7.261104599565e-05       1.016931251540e-04       1.022328746878e-04 
       5.309805612372e-04       9.525330671553e-05       1.619732881442e-04       1.619952402513e-04       9.224500917704e-05       1.605028943832e-04       1.618504875514e-04 
       6.684649217102e-04       1.052845316872e-04       2.563718302809e-04       2.564231063944e-04       9.872493299873e-05       2.527410942043e-04       2.560940993159e-04 
       8.415474768340e-04       8.303228526801e-05       4.054992606107e-04       4.056141673234e-04       6.987069003312e-05       3.966176257266e-04       4.049073910608e-04 
       1.059445503818e-03       1.171421669121e-05       6.407062407936e-04       6.409478609625e-04      -1.146697322808e-05       6.192930104164e-04       6.395527583496e-04 
       1.333762867167e-03      -6.949056257647e-05       1.010852506403e-03       1.011314947309e-03      -1.031177158298e-04       9.603469172725e-04       1.008863819928e-03 
       1.679107966784e-03      -2.415719555658e-05       1.591630941443e-03       1.592411537234e-03      -6.266993145566e-05       1.476231858449e-03       1.588589980882e-03 
       2.113871688530e-03       1.370907985637e-04       2.499441295296e-03       2.500609727127e-03       1.001387811455e-04       2.246715670608e-03       2.494716893280e-03 
       2.661206785963e-03      -3.604872614616e-05       3.911580022024e-03       3.913319491374e-03      -4.539598115041e-05       3.384129855069e-03       3.903147553676e-03 
       3.350260848888e-03      -5.547513476047e-05       6.094935335807e-03       6.097770677225e-03       4.167438341869e-06       5.036421142126e-03       6.081066342880e-03 
       4.217728518804e-03      -1.711522911034e-04       9.445741788008e-03       9.450238906398e-03      -6.934681046762e-05       7.357145268818e-03       9.422497212660e-03 
       5.309805612372e-03       7.905625325227e-05       1.454074705499e-02       1.454780831683e-02       1.193730519936e-04       1.046867143736e-02       1.450249571483e-02 
       6.684649217102e-03       1.816219030562e-04       2.219817177498e-02       2.220942742632e-02       1.315177284517e-04       1.449371982177e-02       2.213467422000e-02 
       8.415474768340e-03       1.635665103561e-04       3.353977593135e-02       3.355779772233e-02       1.160196612999e-04       1.946341363945e-02       3.343539447948e-02 
       1.059445503818e-02      -2.479583645836e-04       5.002487196479e-02       5.005404765846e-02      -1.629477085857e-04       2.523491437367e-02       4.985606303838e-02 
       1.333762867167e-02       8.012748119045e-05       7.339507824375e-02       7.344313657694e-02      -9.327845503665e-05       3.142493409770e-02       7.313161939314e-02 
       1.679107966781e-02      -2.021757204601e-04       1.054177611285e-01       1.054983501938e-01      -1.436410976660e-04       3.737685367287e-02       1.050196584585e-01 
       2.113871670917e-02       1.373201339074e-04       1.473011918793e-01       1.474376297996e-01      -1.830926481966e-04       4.221827354149e-02       1.467281464559e-01 
       2.661193529410e-02      -1.003956879938e-04       1.989064576421e-01       1.991338913440e-01       1.640700908853e-04       4.492249370418e-02       1.981236565936e-01 
       3.348442896176e-02      -4.279643531466e-05       2.587859577753e-01       2.591414265106e-01      -1.614519623810e-04       4.499834490780e-02       2.577671690529e-01 
       4.157732672947e-02      -2.723631577131e-04       3.242596385047e-01       3.247361371748e-01       1.724541791835e-04       4.310925920115e-02       3.229595831231e-01 
       4.838882049716e-02       1.339054590018e-04       3.805989874295e-01       3.811163196320e-01      -1.723147040956e-04       4.141763048365e-02       3.790039707584e-01 
       5.333080081211e-02       2.750132657644e-04       4.244761973174e-01       4.249855653990e-01      -9.654708998346e-05       4.047301459779e-02       4.226194749449e-01 
       5.740801476810e-02       4.469485748956e-05       4.626662684299e-01       4.631534512331e-01      -1.280668309174e-04       3.977888348350e-02       4.605688978008e-01 
       6.104925253706e-02      -8.516909390354e-06       4.977018263600e-01       4.981660515822e-01      -2.168309275176e-06       3.918193200021e-02       4.953819628793e-01 
       6.444578911592e-02      -8.149242680696e-06       5.304095182795e-01       5.308572786571e-01      -2.077056220441e-06       3.862825655919e-02       5.278861197677e-01 
       6.769891516270e-02      -7.813944992084e-06       5.609888320009e-01       5.614314271882e-01      -1.993765838242e-06       3.796576014060e-02       5.582831830391e-01 
       7.086938720988e-02      -7.493968970786e-06       5.893895099513e-01       5.898415211034e-01      -1.913883074494e-06       3.735084604040e-02       5.865265200366e-01 
       7.399712481949e-02      -7.180356581754e-06       6.154834212331e-01       6.159613737389e-01      -1.835439128243e-06       3.657560471455e-02       6.124895901780e-01 
       7.711026791128e-02      -6.868644595768e-06       6.391651707761e-01       6.396861523195e-01      -1.757351076789e-06       3.558961023177e-02       6.360678866292e-01 
       8.022981465599e-02      -6.557324660576e-06       6.604227918960e-01       6.610029356427e-01      -1.678993905201e-06       3.470653179139e-02       6.572498811535e-01 
       8.337219929640e-02      -6.248029487412e-06       6.793906010706e-01       6.800434852275e-01      -1.601065756038e-06       3.364922529968e-02       6.761659419832e-01 
       8.655081991654e-02      -5.943626639416e-06       6.963853701305e-01       6.971204883326e-01      -1.524193737626e-06       3.255785384627e-02       6.931281199721e-01 
       8.977699164816e-02      -5.648375557818e-06       7.119236208001e-01       7.127448865324e-01      -1.449545934339e-06       3.138880159915e-02       7.086451293470e-01 
       9.306056683704e-02      -5.366818922495e-06       7.267140040766e-01       7.276186979436e-01      -1.378176488033e-06       3.032090001178e-02       7.234166582628e-01 
       9.641035269606e-02      -5.103712824524e-06       7.416205764818e-01       7.425988078020e-01      -1.311422588219e-06       2.923244564393e-02       7.382953355756e-01 
       9.983440071519e-02      -4.862814370690e-06       7.575932148612e-01       7.586281565048e-01      -1.250157362657e-06       2.832622866585e-02       7.542205260251e-01 
       1.033402119681e-01      -4.646854376290e-06       7.755656674863e-01       7.766347354803e-01      -1.195198460316e-06       2.742283587569e-02       7.721151216005e-01 
       1.069348855485e-01      -4.456592514900e-06       7.963270475943e-01       7.974041108167e-01      -1.146724724942e-06       2.660534635531e-02       7.927610423813e-01 
       1.106252274985e-01      -4.290672853015e-06       8.203802369670e-01       8.214388008826e-01      -1.104360507182e-06       2.599329911518e-02       8.166584261422e-01 
       1.144178316307e-01      -4.145717556630e-06       8.478083029079e-01       8.488254181048e-01      -1.067313910148e-06       2.545229381759e-02       8.438923360871e-01 
       1.183191399418e-01      -4.016367561136e-06       8.781775216158e-01       8.791379429141e-01      -1.034234644912e-06       2.496379694136e-02       8.740379308543e-01 
       1.223354879560e-01      -3.895961121480e-06       9.105097033827e-01       9.114096067498e-01      -1.003460954992e-06       2.441396901205e-02       9.061317894864e-01 
       1.264731388080e-01      -3.777263318779e-06       9.433539227875e-01       9.442033331036e-01      -9.730924106842e-07       2.392741949346e-02       9.387433940959e-01 
       1.307383088689e-01      -3.653796370117e-06       9.749769422837e-01       9.758000082650e-01      -9.415062567115e-07       2.339262820511e-02       9.701608838584e-01 
       1.351371870486e-01      -3.520806710294e-06       1.003668837472e+00       1.004501284380e+00      -9.074769522171e-07       2.281188541257e-02       9.986938651061e-01 
       1.396759494632e-01      -3.376327891940e-06       1.028128442715e+00       1.029011988630e+00      -8.705225159318e-07       2.207238398303e-02       1.023053243964e+00 
       1.443607708613e-01      -3.221609707380e-06       1.047855726134e+00       1.048829956643e+00      -8.309304436004e-07       2.126535989748e-02       1.042740408935e+00 
       1.491978340066e-01      -3.061120206332e-06       1.063445277398e+00       1.064538337524e+00      -7.898270778377e-07       2.044205805017e-02       1.058337131927e+00 
       1.541933380895e-01      -2.901727924397e-06       1.076661506181e+00       1.077881778736e+00      -7.489800048543e-07       1.957817757498e-02       1.071581030108e+00 
       1.593535071576e-01      -2.751118123486e-06       1.090197618008e+00       1.091529006844e+00      -7.103402622234e-07       1.876859756044e-02       1.085129675457e+00 
       1.646845995079e-01      -2.615964383363e-06       1.107088517530e+00       1.108491704387e+00      -6.756424778372e-07       1.793896747242e-02       1.101980801473e+00 
       1.701929189492e-01      -2.499921843904e-06       1.129858946780e+00       1.131279798822e+00      -6.457809811912e-07       1.735309710199e-02       1.124633221141e+00 
       1.758848288251e-01      -2.402615827918e-06       1.159620350627e+00       1.161004547097e+00      -6.207122451755e-07       1.680707475448e-02       1.154191083933e+00 
       1.817667696725e-01      -2.319346868532e-06       1.195435240789e+00       1.196745605678e+00      -5.992295212679e-07       1.636708335183e-02       1.189736910179e+00 
       1.878452813852e-01      -2.242469446012e-06       1.234282219421e+00       1.235513092294e+00      -5.793967594160e-07       1.591712031319e-02       1.228292642798e+00 
       1.941270307443e-01      -2.163724070682e-06       1.271823148610e+00       1.273005567443e+00      -5.590865272499e-07       1.552089066641e-02       1.265576057857e+00 
       2.006188451821e-01      -2.077169578287e-06       1.303887830482e+00       1.305081316932e+00      -5.368012406362e-07       1.497257303802e-02       1.297464010697e+00 
       2.073277536588e-01      -1.981274883885e-06       1.328222456599e+00       1.329493919633e+00      -5.121158767159e-07       1.445052265321e-02       1.321722486729e+00 
       2.142610355664e-01      -1.879651037121e-06       1.345753872610e+00       1.347150305883e+00      -4.859706923438e-07       1.379007992539e-02       1.339255692312e+00 
       2.214262786303e-01      -1.779427556992e-06       1.360609491601e+00       1.362136021871e+00      -4.601725657708e-07       1.313294969619e-02       1.354132766219e+00 
       2.288314468800e-01      -1.688128943748e-06       1.378545671599e+00       1.380160852232e+00      -4.366443209255e-07       1.255142451890e-02       1.372038238912e+00 
       2.364849599101e-01      -1.610138259822e-06       1.404222741750e+00       1.405856757130e+00      -4.165132652764e-07       1.207618462113e-02       1.397582016884e+00 
       2.443957848719e-01      -1.544577385598e-06       1.438587333958e+00       1.440177231215e+00      -3.995673971652e-07       1.165711152226e-02       1.431710871030e+00 
       2.525735429460e-01      -1.485847077141e-06       1.477951816993e+00       1.479476374534e+00      -3.843786708285e-07       1.126967780724e-02       1.470793244735e+00 
       2.610286324711e-01      -1.426797509910e-06       1.515743587164e+00       1.517236680459e+00      -3.691181162406e-07       1.087872167725e-02       1.508340334145e+00 
       2.697723714746e-01      -1.362834080406e-06       1.546369086947e+00       1.547899854698e+00      -3.526017537945e-07       1.051699902408e-02       1.538820379063e+00 
       2.788171631175e-01      -1.294519011575e-06       1.568973970968e+00       1.570602460978e+00      -3.349802833741e-07       1.002326442566e-02       1.561375707662e+00 
       2.881766885710e-01      -1.226777553327e-06       1.588348911988e+00       1.590085334380e+00      -3.175050065804e-07       9.494522596781e-03       1.580728059439e+00 
       2.978661331832e-01      -1.165190579803e-06       1.611737081270e+00       1.613535392894e+00      -3.015962182987e-07       9.101434593896e-03       1.604032494212e+00 
       3.079024535571e-01      -1.111896198827e-06       1.643350687018e+00       1.645145305517e+00      -2.878138585282e-07       8.736475316227e-03       1.635460260209e+00 
       3.183046955236e-01      -1.064182393133e-06       1.680831373057e+00       1.682590976806e+00      -2.754651927456e-07       8.424889364045e-03       1.672695367921e+00 
       3.290943761514e-01      -1.017082595352e-06       1.717130754749e+00       1.718883725199e+00      -2.632840223296e-07       8.059611334076e-03       1.708779557985e+00 
       3.402959472302e-01      -9.677291046832e-07       1.746893867639e+00       1.748699580350e+00      -2.505273725486e-07       7.736131748684e-03       1.738414947073e+00 
       3.519373635464e-01      -9.176065710303e-07       1.771670686996e+00       1.773560824406e+00      -2.375756091239e-07       7.393248670247e-03       1.763119157233e+00 
       3.640507874628e-01      -8.704680615774e-07       1.798317137506e+00       1.800265934222e+00      -2.253892082745e-07       7.044352252126e-03       1.789660634469e+00 
       3.766734728608e-01      -8.281196418555e-07       1.831477842453e+00       1.833435495574e+00      -2.144317052283e-07       6.726965002137e-03       1.822637328773e+00 
