# Rescaled matter transfer functions [-T_i(k)/k^2] for adiabatic (AD) mode (normalized to initial curvature=1) at redshift z=5.1
# for k=2.11387e-07 to 211.604 h/Mpc,
# number of wavenumbers equal to 152
# T_i   stands for (delta rho_i/rho_i)(k,z) with above normalization 
# The rescaling factor [-1/k^2] with k in 1/Mpc is here to match the CMBFAST/CAMB output convention
#
#
#    1:k (h/Mpc)              2:-T_cdm/k2              3:-T_b/k2                4:-T_g/k2                5:-T_ur/k2               6:-T_ncdm/k2             7:-T_tot/k2          
       2.113871688530e-07       4.067900311502e+06       4.067900311458e+06       5.423866875160e+06       5.423866868231e+06       4.074158635289e+06       4.069998302472e+06 
       2.661206785963e-07       4.067900310667e+06       4.067900310597e+06       5.423866753064e+06       5.423866742082e+06       4.074158628688e+06       4.069998301423e+06 
       3.350260848888e-07       4.067900309342e+06       4.067900309231e+06       5.423866559555e+06       5.423866542150e+06       4.074158618226e+06       4.069998299761e+06 
       4.217728518804e-07       4.067900307243e+06       4.067900307067e+06       5.423866252865e+06       5.423866225279e+06       4.074158601644e+06       4.069998297126e+06 
       5.309805612372e-07       4.067900303915e+06       4.067900303636e+06       5.423865766793e+06       5.423865723073e+06       4.074158575364e+06       4.069998292951e+06 
       6.684649217102e-07       4.067900298642e+06       4.067900298200e+06       5.423864996421e+06       5.423864927129e+06       4.074158533713e+06       4.069998286334e+06 
       8.415474768340e-07       4.067900290284e+06       4.067900289583e+06       5.423863775465e+06       5.423863665644e+06       4.074158467701e+06       4.069998275846e+06 
       1.059445503818e-06       4.067900277037e+06       4.067900275927e+06       5.423861840379e+06       5.423861666326e+06       4.074158363079e+06       4.069998259223e+06 
       1.333762867167e-06       4.067900256043e+06       4.067900254284e+06       5.423858773477e+06       5.423858497621e+06       4.074158197264e+06       4.069998232878e+06 
       1.679107966784e-06       4.067900222769e+06       4.067900219981e+06       5.423853912768e+06       5.423853475566e+06       4.074157934465e+06       4.069998191125e+06 
       2.113871688530e-06       4.067900170034e+06       4.067900165615e+06       5.423846209072e+06       5.423845516154e+06       4.074157517957e+06       4.069998124950e+06 
       2.661206785963e-06       4.067900086454e+06       4.067900079451e+06       5.423833999557e+06       5.423832901359e+06       4.074156857837e+06       4.069998020070e+06 
       3.350260848888e-06       4.067899953989e+06       4.067899942890e+06       5.423814648835e+06       5.423812908313e+06       4.074155811617e+06       4.069997853846e+06 
       4.217728518804e-06       4.067899744046e+06       4.067899726456e+06       5.423783980140e+06       5.423781221611e+06       4.074154153472e+06       4.069997590399e+06 
       5.309805612372e-06       4.067899411310e+06       4.067899383431e+06       5.423735373873e+06       5.423731001929e+06       4.074151525493e+06       4.069997172866e+06 
       6.684649217102e-06       4.067898883959e+06       4.067898839774e+06       5.423658338979e+06       5.423651409991e+06       4.074147360435e+06       4.069996511122e+06 
       8.415474768340e-06       4.067898048167e+06       4.067897978140e+06       5.423536249030e+06       5.423525267518e+06       4.074140759287e+06       4.069995462334e+06 
       1.059445503818e-05       4.067896723532e+06       4.067896612548e+06       5.423342754852e+06       5.423325350813e+06       4.074130297232e+06       4.069993800132e+06 
       1.333762867167e-05       4.067894624143e+06       4.067894448249e+06       5.423036100687e+06       5.423008518360e+06       4.074113716138e+06       4.069991165758e+06 
       1.679107966784e-05       4.067891296875e+06       4.067891018112e+06       5.422550120349e+06       5.422506408362e+06       4.074087437246e+06       4.069986990651e+06 
       2.113871688530e-05       4.067886023611e+06       4.067885581826e+06       5.421779978212e+06       5.421710707058e+06       4.074045788935e+06       4.069980373788e+06 
       2.661206785963e-05       4.067877666299e+06       4.067876966181e+06       5.420559598147e+06       5.420449830046e+06       4.073979783144e+06       4.069969887361e+06 
       3.350260848888e-05       4.067864421480e+06       4.067863312026e+06       5.418625960927e+06       5.418452038624e+06       4.073875176869e+06       4.069953268988e+06 
       4.217728518804e-05       4.067843431432e+06       4.067841673463e+06       5.415562695487e+06       5.415287168779e+06       4.073709401803e+06       4.069926934391e+06 
       5.309805612372e-05       4.067810168403e+06       4.067807383210e+06       5.410711118788e+06       5.410274743569e+06       4.073446702967e+06       4.069885206282e+06 
       6.684649217102e-05       4.067757459988e+06       4.067753048266e+06       5.403030350876e+06       5.402339508663e+06       4.073030446133e+06       4.069819095320e+06 
       8.415474768340e-05       4.067673947718e+06       4.067666961911e+06       5.390878385414e+06       5.389785395410e+06       4.072370956437e+06       4.069714375816e+06 
       1.059445503818e-04       4.067541652282e+06       4.067530596329e+06       5.371672042561e+06       5.369944584878e+06       4.071326320472e+06       4.069548555346e+06 
       1.333762867167e-04       4.067332135167e+06       4.067314652277e+06       5.341365312685e+06       5.338639527572e+06       4.069672151617e+06       4.069286120401e+06 
       1.679107966784e-04       4.067000466536e+06       4.066972857189e+06       5.293665474694e+06       5.289375495240e+06       4.067054151937e+06       4.068871121968e+06 
       2.113871688530e-04       4.066475792713e+06       4.066432282594e+06       5.218896394659e+06       5.212172162346e+06       4.062914128725e+06       4.068215723399e+06 
       2.661206785963e-04       4.065646703670e+06       4.065578361750e+06       5.102454311132e+06       5.091982659450e+06       4.056375729915e+06       4.067182784018e+06 
       3.350260848888e-04       4.064338822841e+06       4.064232036929e+06       4.922975363934e+06       4.906834519472e+06       4.046070761147e+06       4.065560033955e+06 
       4.217728518804e-04       4.062281190310e+06       4.062115703720e+06       4.650855388146e+06       4.626377836572e+06       4.029882149340e+06       4.063023356795e+06 
       5.309805612372e-04       4.059057526172e+06       4.058804367417e+06       4.249028978261e+06       4.212853459755e+06       4.004580837926e+06       4.059088222893e+06 
       6.684649217102e-04       4.054039519186e+06       4.053659980453e+06       3.680421457315e+06       3.629092197776e+06       3.965355613822e+06       4.053053406568e+06 
       8.415474768340e-04       4.046304327653e+06       4.045752756357e+06       2.929838512116e+06       2.861528232987e+06       3.905310135116e+06       4.043951675786e+06 
       1.059445503818e-03       4.034550954482e+06       4.033786074988e+06       2.047146570544e+06       1.964823893250e+06       3.815192068674e+06       4.030533691276e+06 
       1.333762867167e-03       4.017050084534e+06       4.016058125037e+06       1.195739322862e+06       1.110018171665e+06       3.683998056210e+06       4.011296198090e+06 
       1.679107966784e-03       3.991671313059e+06       3.990488392413e+06       6.216050336520e+05       5.470428643303e+05       3.501598274874e+06       3.984468270930e+06 
       2.113871688530e-03       3.955979716847e+06       3.954662616321e+06       4.188902308840e+05       3.601616010878e+05       3.264440380595e+06       3.947757007989e+06 
       2.661206785963e-03       3.907269634961e+06       3.905766393862e+06       3.148644310929e+05       2.668947237563e+05       2.982658527188e+06       3.898069828816e+06 
       3.350260848888e-03       3.842476776706e+06       3.840552496201e+06       1.635346583203e+05       1.345792339935e+05       2.679845852676e+06       3.832201157816e+06 
       4.217728518804e-03       3.758276566023e+06       3.755704198294e+06       1.151678301547e+05       9.869363407600e+04       2.374880441432e+06       3.747138218239e+06 
       5.309805612372e-03       3.651276462053e+06       3.647746125782e+06       6.129669166866e+04       5.651803243523e+04       2.064084467046e+06       3.639316553911e+06 
       6.684649217102e-03       3.517975618484e+06       3.512945900149e+06       3.527133869664e+04       3.298936520156e+04       1.741850895535e+06       3.505243780345e+06 
       8.415474768340e-03       3.354820955404e+06       3.347537608446e+06       2.298269860786e+04       2.078850837544e+04       1.420478342960e+06       3.341379967934e+06 
       1.059445503818e-02       3.158336100536e+06       3.147724054292e+06       1.402182165123e+04       1.224429335676e+04       1.121785810191e+06       3.144283887256e+06 
       1.333762867167e-02       2.925179324659e+06       2.909803865349e+06       8.232466273541e+03       7.416396450052e+03       8.494702424427e+05       2.910589124987e+06 
       1.679107966781e-02       2.652714349200e+06       2.630881191275e+06       4.723886045986e+03       4.053777185351e+03       6.154515217229e+05       2.637675324874e+06 
       2.113871670917e-02       2.340927284866e+06       2.311120281196e+06       2.518082221883e+03       2.332273645636e+03       4.240312551353e+05       2.325571455990e+06 
       2.661193529410e-02       1.996978899918e+06       1.958958985025e+06       1.507713358053e+03       1.194598694212e+03       2.758728301989e+05       1.981600981629e+06 
       3.348442896176e-02       1.643371110311e+06       1.600067867250e+06       7.145678137397e+02       6.433336694490e+02       1.696017501586e+05       1.628633869856e+06 
       4.157732672947e-02       1.336662383030e+06       1.295295304301e+06       3.882359123275e+02       3.208455839727e+02       1.028353574392e+05       1.323589215558e+06 
       4.838882049716e-02       1.158004386221e+06       1.123438334956e+06       2.279204467690e+02       2.184997150421e+02       7.181869788101e+04       1.146811746124e+06 
       5.333080081211e-02       1.062571590005e+06       1.034224804949e+06       1.576322977324e+02       1.648456320883e+02       5.717909018571e+04       1.052792665638e+06 
       5.740801476810e-02       9.988598508996e+05       9.755453746347e+05       1.334280828754e+02       1.313908505471e+02       4.817387530801e+04       9.901644434888e+05 
       6.104925253706e-02       9.496124564003e+05       9.302517148796e+05       1.200200636736e+02       1.089652497304e+02       4.173139484208e+04       9.417664484256e+05 
       6.444578911592e-02       9.077550696915e+05       8.913780257153e+05       1.029937767533e+02       9.350663459995e+01       3.670362634704e+04       9.005741100346e+05 
       6.769891516270e-02       8.697735176260e+05       8.555034090563e+05       8.945100363796e+01       8.121098596997e+01       3.259658409572e+04       8.631043925926e+05 
       7.086938720988e-02       8.337438905954e+05       8.207968151894e+05       7.825519039650e+01       7.104632966186e+01       2.911465834622e+04       8.274568308492e+05 
       7.399712481949e-02       7.986000669619e+05       7.862943487882e+05       6.875381816386e+01       6.242017394857e+01       2.602739721416e+04       7.925859371579e+05 
       7.711026791128e-02       7.638107998995e+05       7.515809604926e+05       6.054871920371e+01       5.497097915866e+01       2.332616494477e+04       7.579812853081e+05 
       8.022981465599e-02       7.292140145863e+05       7.166254601125e+05       5.338578379114e+01       4.846799483876e+01       2.087680865822e+04       7.235014953611e+05 
       8.337219929640e-02       6.949158600491e+05       6.816770727605e+05       4.709681465021e+01       4.275848910448e+01       1.870293538888e+04       6.892744841205e+05 
       8.655081991654e-02       6.612159649521e+05       6.471853670223e+05       4.156567062555e+01       3.773699146980e+01       1.673217207295e+04       6.556213399771e+05 
       8.977699164816e-02       6.285411875070e+05       6.137264771540e+05       3.670767842581e+01       3.332661246339e+01       1.497916176329e+04       6.229899331741e+05 
       9.306056683704e-02       5.973801754947e+05       5.819280634273e+05       3.245616198944e+01       2.946680618853e+01       1.341808248925e+04       5.918878526177e+05 
       9.641035269606e-02       5.682163740102e+05       5.523917279164e+05       2.875364405539e+01       2.610538411064e+01       1.202699687101e+04       5.628142848323e+05 
       9.983440071519e-02       5.414609238538e+05       5.256152043006e+05       2.554614185678e+01       2.319333727830e+01       1.081145165710e+04       5.361916886711e+05 
       1.033402119681e-01       5.173897541476e+05       5.019199930166e+05       2.277974993524e+01       2.068173045095e+01       9.752103039181e+03       5.123015534769e+05 
       1.069348855485e-01       4.960913127266e+05       4.813924255036e+05       2.039914265183e+01       1.852034268766e+01       8.828367023804e+03       4.912314563208e+05 
       1.106252274985e-01       4.774327039746e+05       4.638475209383e+05       1.834762908584e+01       1.665771645989e+01       8.025445162383e+03       4.728410495054e+05 
       1.144178316307e-01       4.610520812454e+05       4.488248802139e+05       1.656846406171e+01       1.504234585084e+01       7.318202941865e+03       4.567549771347e+05 
       1.183191399418e-01       4.463835853574e+05       4.356237796517e+05       1.500710465027e+01       1.362472422642e+01       6.694491648503e+03       4.423893478402e+05 
       1.223354879560e-01       4.327176081391e+05       4.233802189062e+05       1.361397217293e+01       1.235984964750e+01       6.134312692418e+03       4.290142126038e+05 
       1.264731388080e-01       4.192936055180e+05       4.111818906399e+05       1.234726002230e+01       1.120977321257e+01       5.613627914618e+03       4.158493478606e+05 
       1.307383088689e-01       4.054156864883e+05       3.982086118917e+05       1.117525274306e+01       1.014570405079e+01       5.128045262578e+03       4.021831862721e+05 
       1.351371870486e-01       3.905736815539e+05       3.838768723405e+05       1.007764010393e+01       9.149201402669e+00       4.663035227105e+03       3.874967870806e+05 
       1.396759494632e-01       3.745462003908e+05       3.679600511761e+05       9.045466570823e+00       8.212129805739e+00       4.222513329142e+03       3.715691255219e+05 
       1.443607708613e-01       3.574596439069e+05       3.506532995933e+05       8.079508117569e+00       7.335185881306e+00       3.801966971424e+03       3.545366068960e+05 
       1.491978340066e-01       3.397804454490e+05       3.325566821017e+05       7.187216913541e+00       6.525126477269e+00       3.410486559970e+03       3.368840162967e+05 
       1.541933380895e-01       3.222286316325e+05       3.145637461536e+05       6.378657847449e+00       5.791080952062e+00       3.051584152485e+03       3.193545780409e+05 
       1.593535071576e-01       3.056188134483e+05       2.976647124566e+05       5.662193622714e+00       5.140635521008e+00       2.729038710471e+03       3.027859292135e+05 
       1.646845995079e-01       2.906571116713e+05       2.827003298286e+05       5.040827167712e+00       4.576513803050e+00       2.447398399143e+03       2.879014202017e+05 
       1.701929189492e-01       2.777433495356e+05       2.701268423665e+05       4.510081128772e+00       4.094651922018e+00       2.206285922319e+03       2.751075401941e+05 
       1.758848288251e-01       2.668389628167e+05       2.598646808153e+05       4.058006146127e+00       3.684205430224e+00       1.999275811644e+03       2.643595303955e+05 
       1.817667696725e-01       2.574544005902e+05       2.512939257185e+05       3.667384577720e+00       3.329548714544e+00       1.819168211255e+03       2.551501238120e+05 
       1.878452813852e-01       2.487809887355e+05       2.434235577686e+05       3.319552142345e+00       3.013742701045e+00       1.657476355009e+03       2.466465245685e+05 
       1.941270307443e-01       2.399447599946e+05       2.352037776515e+05       2.998698461962e+00       2.722437496861e+00       1.507045873533e+03       2.379520042241e+05 
       2.006188451821e-01       2.303071820399e+05       2.258880876395e+05       2.695241073373e+00       2.446934462369e+00       1.362833736897e+03       2.284145877782e+05 
       2.073277536588e-01       2.197019321080e+05       2.153108678633e+05       2.407078910635e+00       2.185324196918e+00       1.224712789776e+03       2.178689356709e+05 
       2.142610355664e-01       2.085007230991e+05       2.039538454350e+05       2.138230148737e+00       1.941250843492e+00       1.094653870067e+03       2.067019132452e+05 
       2.214262786303e-01       1.974564328125e+05       1.927441112131e+05       1.895358905906e+00       1.720760460019e+00       9.761721033003e+02       1.956895308866e+05 
       2.288314468800e-01       1.873671155539e+05       1.826420941645e+05       1.683601467615e+00       1.528513421487e+00       8.720914701124e+02       1.856508953709e+05 
       2.364849599101e-01       1.787015491130e+05       1.741929574412e+05       1.503481945614e+00       1.364985173754e+00       7.829662366715e+02       1.770641944506e+05 
       2.443957848719e-01       1.713717847102e+05       1.672644073177e+05       1.350278900875e+00       1.225891028211e+00       7.069798317019e+02       1.698350424834e+05 
       2.525735429460e-01       1.647885317652e+05       1.611289474415e+05       1.216056880799e+00       1.104029349347e+00       6.400168014938e+02       1.633557505739e+05 
       2.610286324711e-01       1.581937956902e+05       1.548753497981e+05       1.093217027646e+00       9.925035179429e-01       5.784789074592e+02       1.568484789719e+05 
       2.697723714746e-01       1.510967326051e+05       1.479329929225e+05       9.775849878073e-01       8.875242813273e-01       5.197380222506e+02       1.498125548615e+05 
       2.788171631175e-01       1.435490575342e+05       1.403912623498e+05       8.693109375946e-01       7.892268539048e-01       4.643570241622e+02       1.423052785491e+05 
       2.881766885710e-01       1.360695885068e+05       1.328922538319e+05       7.711794927706e-01       7.001374882618e-01       4.140251171138e+02       1.348619075878e+05 
       2.978661331832e-01       1.292513575625e+05       1.261483348793e+05       6.855765637664e-01       6.224210387005e-01       3.696155974974e+02       1.280909075854e+05 
       3.079024535571e-01       1.233233152785e+05       1.204192399922e+05       6.122327650738e-01       5.558329799670e-01       3.315826864744e+02       1.222248118191e+05 
       3.183046955236e-01       1.180017580826e+05       1.153488332651e+05       5.482510926160e-01       4.977442254527e-01       2.982657368245e+02       1.169701440244e+05 
       3.290943761514e-01       1.127596993351e+05       1.103032752437e+05       4.901639138020e-01       4.450076316234e-01       2.677774675007e+02       1.117860731437e+05 
       3.402959472302e-01       1.072906157437e+05       1.049293646195e+05       4.361730066757e-01       3.959908500847e-01       2.392734707498e+02       1.063604291653e+05 
       3.519373635464e-01       1.017474723582e+05       9.942837953940e+04       3.866733319608e-01       3.510518548153e-01       2.129679191679e+02       1.008528829676e+05 
       3.640507874628e-01       9.652698667822e+04       9.428203473106e+04       3.428004295998e-01       3.112208899563e-01       1.895696663514e+02       9.567127997211e+04 
