# Transfer functions T_i(k) for adiabatic (AD) mode (normalized to initial curvature=1) at redshift z=0.05
# for k=2.11387e-07 to 1060.53 h/Mpc,
# number of wavenumbers equal to 159
# t_i   stands for theta_i(k,z) with above normalization 
# t_tot stands for (sum_i [rho_i+p_i] theta_i)/(sum_i [rho_i+p_i]))(k,z)
#
#    1:k (h/Mpc)              2:t_g                    3:t_b                    4:t_cdm                  5:t_ur                   6:t_ncdm[0]              7:t_tot              
       2.113871688530e-07       4.729409414123e-11       4.729383569973e-11       4.729383568165e-11       4.729410565093e-11       4.729334142091e-11       4.729383393686e-11 
       2.661206785963e-07       7.495606731425e-11       7.495567819132e-11       7.495567816300e-11       7.495608509728e-11       7.495489479529e-11       7.495567539032e-11 
       3.350260848888e-07       1.187973095421e-10       1.187967440112e-10       1.187967439671e-10       1.187973365851e-10       1.187955023705e-10       1.187967395543e-10 
       4.217728518804e-07       1.882809193297e-10       1.882801507906e-10       1.882801507228e-10       1.882809593570e-10       1.882781828207e-10       1.882801436831e-10 
       5.309805612372e-07       2.984048250123e-10       2.984039288837e-10       2.984039287814e-10       2.984048812941e-10       2.984008096020e-10       2.984039175084e-10 
       6.684649217102e-07       4.729389690899e-10       4.729383549889e-10       4.729383548396e-10       4.729390404155e-10       4.729334106164e-10       4.729383366831e-10 
       8.415474768340e-07       7.495557225659e-10       7.495567774356e-10       7.495567772313e-10       7.495557905763e-10       7.495489395054e-10       7.495567477260e-10 
       1.059445503818e-06       1.187960657256e-09       1.187967428416e-09       1.187967428174e-09       1.187960651726e-09       1.187955002030e-09       1.187967379578e-09 
       1.333762867167e-06       1.882777919357e-09       1.882801473771e-09       1.882801473593e-09       1.882777625358e-09       1.882781768922e-09       1.882801391962e-09 
       1.679107966784e-06       2.983969717508e-09       2.984039206758e-09       2.984039206989e-09       2.983968537240e-09       2.984007950831e-09       2.984039066048e-09 
       2.113871688530e-06       4.729192342213e-09       4.729383330597e-09       4.729383332260e-09       4.729188674065e-09       4.729333728123e-09       4.729383079807e-09 
       2.661206785963e-06       7.495061448110e-09       7.495567213537e-09       7.495567219425e-09       7.495051120543e-09       7.495488435302e-09       7.495566746289e-09 
       3.350260848888e-06       1.187836125274e-08       1.187967287534e-08       1.187967289284e-08       1.187833354821e-08       1.187954760939e-08       1.187967195955e-08 
       4.217728518804e-06       1.882465130883e-08       1.882801122152e-08       1.882801126977e-08       1.882457892567e-08       1.882781165632e-08       1.882800932992e-08 
       5.309805612372e-06       2.983184020346e-08       2.984038317919e-08       2.984038330720e-08       2.983165396785e-08       2.984006429727e-08       2.984037907557e-08 
       6.684649217102e-06       4.727218901183e-08       4.729381102358e-08       4.729381135590e-08       4.727171423798e-08       4.729329911782e-08       4.729380174276e-08 
       8.415474768340e-06       7.490104854238e-08       7.495561619290e-08       7.495561704473e-08       7.489984504658e-08       7.495478851983e-08       7.495559450926e-08 
       1.059445503818e-05       1.186591262365e-07       1.187965882173e-07       1.187965903840e-07       1.186560864025e-07       1.187952353570e-07       1.187965363356e-07 
       1.333762867167e-05       1.879338888798e-07       1.882797592525e-07       1.882797647374e-07       1.879262286018e-07       1.882775119091e-07       1.882796330439e-07 
       1.679107966784e-05       2.975334085741e-07       2.984029453193e-07       2.984029591631e-07       2.975141360310e-07       2.983991242869e-07       2.984026348759e-07 
       2.113871688530e-05       4.707511982992e-07       4.729358834542e-07       4.729359183295e-07       4.707027712431e-07       4.729291763666e-07       4.729351143212e-07 
       2.661206785963e-05       7.440648033553e-07       7.495505691753e-07       7.495506569216e-07       7.439432622912e-07       7.495383035795e-07       7.495486550604e-07 
       3.350260848888e-05       1.174186051158e-06       1.187951835987e-06       1.187952056557e-06       1.173881426017e-06       1.187928288142e-06       1.187947060054e-06 
       4.217728518804e-05       1.848249045994e-06       1.882762315197e-06       1.882762869243e-06       1.847486952115e-06       1.882714675838e-06       1.882750384569e-06 
       5.309805612372e-05       2.897520391331e-06       2.983940863858e-06       2.983942254518e-06       2.895619017946e-06       2.983839444705e-06       2.983911059916e-06 
       6.684649217102e-05       4.513164531340e-06       4.729136412449e-06       4.729139899875e-06       4.508440670164e-06       4.728910588745e-06       4.729062046022e-06 
       8.415474768340e-05       6.956864381489e-06       7.494947405557e-06       7.494956140172e-06       6.945205930474e-06       7.494426062443e-06       7.494762329943e-06 
       1.059445503818e-04       1.054395584793e-05       1.187811765055e-05       1.187813948631e-05       1.051548656920e-05       1.187688104172e-05       1.187765916818e-05 
       1.333762867167e-04       1.554118545056e-05       1.882411123788e-05       1.882416566786e-05       1.547284535772e-05       1.882112142001e-05       1.882298404256e-05 
       1.679107966784e-04       2.184908713351e-05       2.983061290264e-05       2.983074797067e-05       2.168957154457e-05       2.982329046864e-05       2.982787527944e-05 
       2.113871688530e-04       2.823000081216e-05       4.726937168026e-05       4.726970450585e-05       2.787474248016e-05       4.725128859783e-05       4.726285072873e-05 
       2.661206785963e-04       3.081820917452e-05       7.489462848360e-05       7.489543971833e-05       3.008931634863e-05       7.484974781961e-05       7.487956581812e-05 
       3.350260848888e-04       2.128606895708e-05       1.186449490498e-04       1.186468935532e-04       2.000719747217e-05       1.185332759932e-04       1.186117961430e-04 
       4.217728518804e-04      -1.211542637293e-05       1.879047950048e-04       1.879093399446e-04      -1.365669246777e-05       1.876267848254e-04       1.878370860876e-04 
       5.309805612372e-04      -7.154648915048e-05       2.974832093543e-04       2.974934494540e-04      -7.128596398522e-05       2.967921245569e-04       2.973595306783e-04 
       6.684649217102e-04      -1.204391661772e-04       4.707052153516e-04       4.707271485602e-04      -1.133436650229e-04       4.689938958452e-04       4.705102381892e-04 
       8.415474768340e-04      -9.953225253128e-05       7.442190609879e-04       7.442631366088e-04      -8.368825665700e-05       7.400109539974e-04       7.439455631671e-04 
       1.059445503818e-03      -9.120683787105e-05       1.175423070881e-03       1.175505553266e-03      -8.483419792335e-05       1.165191143680e-03       1.175009696304e-03 
       1.333762867167e-03      -1.777018199293e-04       1.853816061688e-03       1.853959512905e-03      -1.909709834431e-04       1.829342940111e-03       1.853129807489e-03 
       1.679107966784e-03      -1.297268633829e-04       2.918089812595e-03       2.918321296330e-03      -1.194089596452e-04       2.860812534802e-03       2.917000757696e-03 
       2.113871688530e-03      -2.083938563007e-04       4.581510886163e-03       4.581864530881e-03      -2.059750028849e-04       4.450790908909e-03       4.579637764337e-03 
       2.661206785963e-03      -2.550030732636e-04       7.168852637856e-03       7.169393443907e-03      -2.481054684696e-04       6.877555543919e-03       7.165613561854e-03 
       3.350260848888e-03      -2.490225743963e-04       1.116888251293e-02       1.116974268258e-02      -2.598275704817e-04       1.053141431023e-02       1.116321710341e-02 
       4.217728518804e-03      -1.926109843241e-04       1.730662353072e-02       1.730797580299e-02      -1.953271042577e-04       1.593386919853e-02       1.729649761263e-02 
       5.309805612372e-03      -2.541500382401e-04       2.663701543657e-02       2.663911750134e-02      -2.666414223582e-04       2.374752893209e-02       2.661857091675e-02 
       6.684649217102e-03      -2.903648152753e-04       4.065661317435e-02       4.065990402905e-02      -2.894965281314e-04       3.474826066286e-02       4.062299054148e-02 
       8.415474768340e-03      -1.229953604427e-04       6.141618066187e-02       6.142133100492e-02      -1.639102336516e-04       4.971691283290e-02       6.135532112856e-02 
       1.059445503818e-02      -1.418921716626e-04       9.158312436168e-02       9.159120667004e-02      -2.144372430645e-04       6.923070989910e-02       9.147445904377e-02 
       1.333762867167e-02      -1.324407851799e-04       1.343408379709e-01       1.343536144397e-01      -2.267483346710e-04       9.331260044352e-02       1.341515698640e-01 
       1.679107966781e-02      -1.237435567794e-04       1.929210192079e-01       1.929413919282e-01      -2.495389282375e-04       1.209198077605e-01       1.926022499755e-01 
       2.113871670917e-02      -2.900424238855e-04       2.695370447839e-01       2.695696810358e-01      -1.045524911325e-04       1.494922886880e-01       2.690227914918e-01 
       2.661193529410e-02      -1.356953529584e-04       3.639433275435e-01       3.639949570705e-01      -1.349247011244e-04       1.749299304172e-01       3.631551599504e-01 
       3.348442896176e-02      -1.115246707590e-04       4.734927855294e-01       4.735703821138e-01      -1.108913459047e-04       1.930784211295e-01       4.723477162453e-01 
       4.157732672947e-02      -9.063746422127e-05       5.932325871387e-01       5.933352581680e-01      -9.012279674190e-05       2.030507526157e-01       5.916579178054e-01 
       4.838882049716e-02      -7.853354102355e-05       6.961762671642e-01       6.962894335486e-01      -7.808762109513e-05       2.083067623992e-01       6.942106126321e-01 
       5.333080081211e-02      -7.209619771796e-05       7.762950841467e-01       7.764094647891e-01      -7.168683572243e-05       2.120387896734e-01       7.740179549224e-01 
       5.740801476810e-02      -6.780819717235e-05       8.460088655239e-01       8.461216342077e-01      -6.742318555492e-05       2.150799414587e-01       8.434577024778e-01 
       6.104925253706e-02      -6.449453147662e-05       9.099606249431e-01       9.100714591560e-01      -6.412833719598e-05       2.175156328961e-01       9.071563764343e-01 
       6.444578911592e-02      -6.167421805405e-05       9.696696572543e-01       9.697795549708e-01      -6.132403997823e-05       2.192864937774e-01       9.666279711250e-01 
       6.769891516270e-02      -5.910876503319e-05       1.025506656998e+00       1.025617469617e+00      -5.877315654063e-05       2.202913247881e-01       1.022242011490e+00 
       7.086938720988e-02      -5.666804923857e-05       1.077384228996e+00       1.077498379278e+00      -5.634630264647e-05       2.204104788107e-01       1.073911493196e+00 
       7.399712481949e-02      -5.428048929984e-05       1.125070849678e+00       1.125191093052e+00      -5.397230326136e-05       2.196608410331e-01       1.121406178278e+00 
       7.711026791128e-02      -5.191112277101e-05       1.168374842620e+00       1.168504026664e+00      -5.161639436894e-05       2.179918764862e-01       1.164535060505e+00 
       8.022981465599e-02      -4.955027191832e-05       1.207273137688e+00       1.207413942206e+00      -4.926895291779e-05       2.155174039300e-01       1.203275446412e+00 
       8.337219929640e-02      -4.720669097265e-05       1.242007579448e+00       1.242162245045e+00      -4.693868325827e-05       2.122846949769e-01       1.237868002221e+00 
       8.655081991654e-02      -4.490236989847e-05       1.273151244178e+00       1.273321315391e+00      -4.464745022990e-05       2.084955144902e-01       1.268883635703e+00 
       8.977699164816e-02      -4.266797690801e-05       1.301639960632e+00       1.301826036048e+00      -4.242574770263e-05       2.043109032277e-01       1.297254167750e+00 
       9.306056683704e-02      -4.053827897953e-05       1.328759056946e+00       1.328960616385e+00      -4.030814507325e-05       1.999508796021e-01       1.324259569152e+00 
       9.641035269606e-02      -3.854745842377e-05       1.356076874029e+00       1.356292193560e+00      -3.832863039135e-05       1.956817886509e-01       1.351461771556e+00 
       9.983440071519e-02      -3.672444553928e-05       1.385318800886e+00       1.385544999049e+00      -3.651596962564e-05       1.917039955795e-01       1.380578908171e+00 
       1.033402119681e-01      -3.508852557720e-05       1.418182347439e+00       1.418415590766e+00      -3.488933854599e-05       1.881953169867e-01       1.413301435471e+00 
       1.069348855485e-01      -3.364570082986e-05       1.456103928075e+00       1.456339809260e+00      -3.345470544100e-05       1.852809738351e-01       1.451059900062e+00 
       1.106252274985e-01      -3.238636169907e-05       1.500001445004e+00       1.500235523128e+00      -3.220251542790e-05       1.830255322290e-01       1.494768676883e+00 
       1.144178316307e-01      -3.128481542110e-05       1.550031424903e+00       1.550259884564e+00      -3.110722188282e-05       1.813220167220e-01       1.544583782401e+00 
       1.183191399418e-01      -3.030107781500e-05       1.605412259894e+00       1.605632608417e+00      -3.012906791978e-05       1.800159825930e-01       1.599727329500e+00 
       1.223354879560e-01      -2.938516514477e-05       1.664373016038e+00       1.664584701623e+00      -2.921835389405e-05       1.788446303215e-01       1.658436251444e+00 
       1.264731388080e-01      -2.848364846409e-05       1.724282760569e+00       1.724487569060e+00      -2.832195447123e-05       1.775160795640e-01       1.718091211309e+00 
       1.307383088689e-01      -2.754779591178e-05       1.781995331619e+00       1.782197417785e+00      -2.739141466031e-05       1.757283778788e-01       1.775559730808e+00 
       1.351371870486e-01      -2.654207205166e-05       1.834403709329e+00       1.834609152369e+00      -2.639140087855e-05       1.732049658445e-01       1.827748035203e+00 
       1.396759494632e-01      -2.545133114216e-05       1.879139739542e+00       1.879355590077e+00      -2.530685331312e-05       1.698544710582e-01       1.872298093943e+00 
       1.443607708613e-01      -2.428491402550e-05       1.915287292079e+00       1.915520197684e+00      -2.414705962020e-05       1.656573892856e-01       1.908297097697e+00 
       1.491978340066e-01      -2.307601298146e-05       1.943916590210e+00       1.944171231439e+00      -2.294502334740e-05       1.608576697660e-01       1.936810164965e+00 
       1.541933380895e-01      -2.187552848331e-05       1.968222893017e+00       1.968500596608e+00      -2.175135568234e-05       1.557559646254e-01       1.961017838779e+00 
       1.593535071576e-01      -2.074082414700e-05       1.993091236711e+00       1.993389205441e+00      -2.062309427293e-05       1.507786490502e-01       1.985783376275e+00 
       1.646845995079e-01      -1.972143845810e-05       2.024032421652e+00       2.024343974797e+00      -1.960949616186e-05       1.463310894125e-01       2.016593373358e+00 
       1.701929189492e-01      -1.884521478990e-05       2.065637085379e+00       2.065953099988e+00      -1.873824660867e-05       1.426801988323e-01       2.058018707456e+00 
       1.758848288251e-01      -1.810909628328e-05       2.119934845416e+00       2.120246232232e+00      -1.800630625302e-05       1.398298272134e-01       2.112080770462e+00 
       1.817667696725e-01      -1.747834498993e-05       2.185237173664e+00       2.185537788683e+00      -1.737913462813e-05       1.376154853505e-01       2.177099775696e+00 
       1.878452813852e-01      -1.689593200338e-05       2.256069482393e+00       2.256358517808e+00      -1.680002694630e-05       1.355707990986e-01       2.247626185995e+00 
       1.941270307443e-01      -1.630044389686e-05       2.324559543747e+00       2.324842356371e+00      -1.620791871964e-05       1.332754214104e-01       2.315823459058e+00 
       2.006188451821e-01      -1.564722887604e-05       2.383130521565e+00       2.383417204809e+00      -1.555841180860e-05       1.303028884134e-01       2.374148018150e+00 
       2.073277536588e-01      -1.492495815525e-05       2.427676415852e+00       2.427978221457e+00      -1.484024169162e-05       1.265360278944e-01       2.418511127561e+00 
       2.142610355664e-01      -1.416012200934e-05       2.459862405265e+00       2.460187154413e+00      -1.407974801911e-05       1.222023590997e-01       2.450569146454e+00 
       2.214262786303e-01      -1.340586697412e-05       2.487168602197e+00       2.487517034680e+00      -1.332977529928e-05       1.177179950194e-01       2.477767312941e+00 
       2.288314468800e-01      -1.271829108663e-05       2.520043581599e+00       2.520408629730e+00      -1.264610283282e-05       1.136032188562e-01       2.510507012342e+00 
       2.364849599101e-01      -1.213014804373e-05       2.566959394360e+00       2.567329304198e+00      -1.206129828698e-05       1.101744401647e-01       2.557223021846e+00 
       2.443957848719e-01      -1.163497875152e-05       2.629654435256e+00       2.630018711422e+00      -1.156893935824e-05       1.074317308964e-01       2.619647712194e+00 
       2.525735429460e-01      -1.119116777277e-05       2.701451708041e+00       2.701806939455e+00      -1.112764712916e-05       1.050106636179e-01       2.691135884509e+00 
       2.610286324711e-01      -1.074544165379e-05       2.770423831730e+00       2.770775857942e+00      -1.068445083888e-05       1.024279673430e-01       2.759814722275e+00 
       2.697723714746e-01      -1.026350715944e-05       2.826403992927e+00       2.826764490643e+00      -1.020525203979e-05       9.936964050954e-02       2.815562566017e+00 
       2.788171631175e-01      -9.749286375131e-06       2.867819235452e+00       2.868198238785e+00      -9.693950454740e-06       9.583415909007e-02       2.856811481512e+00 
       2.881766885710e-01      -9.239436140585e-06       2.903349736198e+00       2.903748843324e+00      -9.186994596155e-06       9.218986585871e-02       2.892200566489e+00 
       2.978661331832e-01      -8.775630747117e-06       2.946145845537e+00       2.946557243606e+00      -8.725821984833e-06       8.884073375354e-02       2.934820194759e+00 
       3.079024535571e-01      -8.373798815232e-06       3.003873344051e+00       3.004286054200e+00      -8.326270791311e-06       8.601410734417e-02       2.992303103760e+00 
       3.183046955236e-01      -8.013844780287e-06       3.072272704000e+00       3.072681603678e+00      -7.968359683819e-06       8.348499637126e-02       3.060411201928e+00 
       3.290943761514e-01      -7.658727465793e-06       3.138554190013e+00       3.138964183763e+00      -7.615257945752e-06       8.090299757665e-02       3.126413978462e+00 
       3.402959472302e-01      -7.287064545699e-06       3.192980911148e+00       3.193402006577e+00      -7.245704695697e-06       7.803316201215e-02       3.180617622300e+00 
       3.519373635464e-01      -6.909789517709e-06       3.238345107596e+00       3.238782558573e+00      -6.870571261845e-06       7.499307158347e-02       3.225799441617e+00 
       3.640507874628e-01      -6.554835587633e-06       3.287088080871e+00       3.287537499970e+00      -6.517632134255e-06       7.208758135282e-02       3.274343087465e+00 
       3.766734728608e-01      -6.235716715467e-06       3.347659036846e+00       3.348112111158e+00      -6.200324522870e-06       6.947431186352e-02       3.334660633322e+00 
